Time_ms,Main_val,Compasste1_val,Compasste2_val,Main_raw,Compasste1_raw,Compasste2_raw,Marker
13,0,0,0,462,461,462,1
25,0,0,0,462,461,462,0
37,0,0,0,462,462,463,0
49,0,0,0,462,461,463,0
61,0,0,0,462,461,463,0
73,0,0,0,463,461,463,0
84,0,0,0,463,461,463,0
96,0,0,0,462,462,462,0
108,0,0,0,462,461,462,0
119,0,0,0,462,462,462,0
131,0,0,0,462,462,462,0
143,0,0,0,462,462,462,0
155,0,0,0,462,461,462,0
166,0,0,0,462,461,462,0
178,0,0,0,462,462,462,0
190,0,0,0,462,461,462,0
201,0,0,0,462,461,462,0
213,0,0,0,462,461,463,0
225,0,0,0,462,461,462,0
236,0,0,0,462,461,463,0
248,0,0,0,462,462,462,0
260,0,0,0,462,461,462,0
272,0,0,0,462,462,463,0
283,0,0,0,462,462,462,0
295,0,0,0,463,462,463,0
307,0,0,0,462,462,462,0
318,0,0,0,462,461,462,0
330,0,0,0,462,462,463,0
342,0,0,0,462,462,462,0
354,0,0,0,462,461,462,0
365,0,0,0,462,462,463,0
377,0,0,0,462,462,463,0
389,0,0,0,462,462,462,0
400,0,0,0,462,461,462,0
412,0,0,0,462,462,462,0
424,0,0,0,462,462,462,0
435,0,0,0,462,462,463,0
447,0,0,0,462,462,462,0
459,0,0,0,462,461,462,0
471,0,0,0,462,462,463,0
482,0,0,0,462,461,463,0
494,0,0,0,462,462,462,0
506,0,0,0,462,461,462,0
517,0,0,0,462,461,462,0
529,0,0,0,462,461,462,0
541,0,0,0,462,461,463,0
552,0,0,0,462,461,462,0
564,0,0,0,462,461,462,0
576,0,0,0,462,461,462,0
588,0,0,0,462,461,462,0
599,0,0,0,462,461,462,0
611,0,0,0,462,461,462,0
623,0,0,0,462,462,462,0
634,0,0,0,462,462,462,0
646,0,0,0,462,462,462,0
658,0,0,0,462,462,462,0
670,0,0,0,462,462,462,0
681,0,0,0,462,462,462,0
693,0,0,0,462,462,462,0
705,0,0,0,462,462,462,0
716,0,0,0,462,462,462,0
728,0,0,0,462,462,462,0
740,0,0,0,462,462,462,0
751,0,0,0,462,462,462,0
763,0,0,0,462,461,462,0
775,0,0,0,462,461,462,0
787,0,0,0,462,461,462,0
798,0,0,0,462,461,462,0
810,0,0,0,462,461,462,0
822,0,0,0,462,461,462,0
833,0,0,0,462,461,462,0
845,0,0,0,462,461,462,0
857,0,0,0,462,461,462,0
868,0,0,0,462,461,462,0
880,0,0,0,462,462,462,0
892,0,0,0,462,461,462,0
904,0,0,0,462,461,462,0
915,0,0,0,462,461,462,0
927,0,0,0,462,461,462,0
939,0,0,0,462,461,462,0
950,0,0,0,462,461,462,0
962,0,0,0,462,461,462,0
974,0,0,0,462,461,462,0
986,0,0,0,462,461,462,0
997,0,0,0,462,461,462,0
1009,0,0,0,462,461,462,0
1021,0,0,0,462,461,462,0
1032,0,0,0,462,461,462,0
1044,0,0,0,462,461,462,0
1056,0,0,0,462,461,462,0
1067,0,0,0,462,461,462,0
1079,0,0,0,462,462,463,0
1091,0,0,0,462,462,462,0
1103,0,0,0,462,461,463,0
1114,0,0,0,462,462,463,0
1126,0,0,0,462,461,462,0
1138,0,0,0,462,461,462,0
1149,0,0,0,462,461,462,0
1161,0,0,0,462,461,462,0
1173,0,0,0,462,461,462,0
1185,0,0,0,462,461,462,0
1196,0,0,0,462,461,462,0
1208,0,0,0,462,461,462,0
1220,0,0,0,462,461,462,0
1231,0,0,0,462,461,462,0
1243,0,0,0,462,462,462,0
1255,0,0,0,462,462,462,0
1266,0,0,0,462,461,462,0
1278,0,0,0,462,462,462,0
1290,0,0,0,462,461,462,0
1302,0,0,0,462,461,462,0
1313,0,0,0,462,461,462,0
1325,0,0,0,462,461,462,0
1337,0,0,0,462,461,462,0
1348,0,0,0,462,461,462,0
1360,0,0,0,462,461,462,0
1372,0,0,0,462,461,462,0
1383,0,0,0,462,461,462,0
1395,0,0,0,462,461,462,0
1407,0,0,0,462,461,463,0
1419,0,0,0,462,461,462,0
1430,0,0,0,462,462,462,0
1442,0,0,0,462,461,463,0
1454,0,0,0,462,462,462,0
1465,0,0,0,462,462,462,0
1477,0,0,0,462,462,463,0
1489,0,0,0,462,462,463,0
1501,0,0,0,462,462,463,0
1512,0,0,0,462,461,462,0
1524,0,0,0,462,462,463,0
1536,0,0,0,462,462,462,0
1547,0,0,0,462,461,463,0
1559,0,0,0,462,461,463,0
1571,0,0,0,462,461,462,0
1582,0,0,0,462,461,462,0
1594,0,0,0,462,461,462,0
1606,0,0,0,462,461,462,0
1618,0,0,0,462,461,462,0
1629,0,0,0,462,461,462,0
1641,0,0,0,462,461,462,0
1653,0,0,0,462,461,462,0
1664,0,0,0,462,461,462,0
1676,0,0,0,462,462,462,0
1688,0,0,0,462,462,462,0
1700,0,0,0,462,461,462,0
1711,0,0,0,462,462,462,0
1723,0,0,0,462,461,463,0
1735,0,0,0,463,462,463,0
1746,0,0,0,463,462,463,0
1758,0,0,0,462,462,462,0
1770,0,0,0,463,462,463,0
1781,0,0,0,463,461,463,0
1793,0,0,0,463,462,463,0
1805,0,0,0,463,462,463,0
1817,0,0,0,463,462,463,0
1828,0,0,0,463,462,463,0
1840,0,0,0,463,461,463,0
1852,0,0,0,463,462,463,0
1863,0,0,0,463,462,463,0
1875,0,0,0,463,462,462,0
1887,0,0,0,463,462,463,0
1898,0,0,0,462,461,463,0
1910,0,0,0,462,461,462,0
1922,0,0,0,462,461,462,0
1934,0,0,0,462,461,462,0
1945,0,0,0,462,461,462,0
1957,0,0,0,462,461,462,0
1969,0,0,0,462,461,462,0
1980,0,0,0,462,461,462,0
1992,0,0,0,462,461,462,0
2004,0,0,0,462,461,462,0
2016,0,0,0,462,461,463,0
2028,0,0,0,462,461,462,0
2040,0,0,0,462,461,463,0
2052,0,0,0,462,461,463,0
2064,0,0,0,462,462,463,0
2075,0,0,0,462,461,462,0
2087,0,0,0,462,461,462,0
2099,0,0,0,462,461,462,0
2111,0,0,0,462,461,462,0
2122,0,0,0,462,461,462,0
2134,0,0,0,462,461,462,0
2146,0,0,0,462,461,462,0
2157,0,0,0,462,462,462,0
2169,0,0,0,462,461,462,0
2181,0,0,0,462,462,462,0
2193,0,0,0,462,462,462,0
2204,0,0,0,462,461,462,0
2216,0,0,0,462,462,462,0
2228,0,0,0,462,461,462,0
2239,0,0,0,462,461,462,0
2251,0,0,0,462,461,462,0
2263,0,0,0,462,461,462,0
2274,0,0,0,462,462,462,0
2286,0,0,0,462,462,462,0
2298,0,0,0,462,461,462,0
2310,0,0,0,462,462,462,0
2321,0,0,0,462,461,462,0
2333,0,0,0,462,461,462,0
2345,0,0,0,462,461,462,0
2356,0,0,0,462,462,462,0
2368,0,0,0,462,462,462,0
2380,0,0,0,462,462,462,0
2392,0,0,0,462,461,462,0
2403,0,0,0,462,461,462,0
2415,0,0,0,462,461,462,0
2427,0,0,0,462,461,462,0
2438,0,0,0,463,461,462,0
2450,0,0,0,462,461,462,0
2462,0,0,0,462,461,462,0
2473,0,0,0,462,461,463,0
2485,0,0,0,462,461,462,0
2497,0,0,0,462,461,462,0
2509,0,0,0,462,461,462,0
2520,0,0,0,462,462,462,0
2532,0,0,0,462,461,462,0
2544,0,0,0,462,462,462,0
2555,0,0,0,462,461,462,0
2567,0,0,0,462,461,462,0
2579,0,0,0,462,462,462,0
2590,0,0,0,462,462,462,0
2602,0,0,0,462,461,462,0
2614,0,0,0,462,462,462,0
2626,0,0,0,462,461,462,0
2637,0,0,0,462,461,463,0
2649,0,0,0,462,461,463,0
2661,0,0,0,462,461,463,0
2672,0,0,0,462,461,463,0
2684,0,0,0,462,461,463,0
2696,0,0,0,462,461,463,0
2708,0,0,0,462,461,463,0
2719,0,0,0,462,461,463,0
2731,0,0,0,462,461,463,0
2743,0,0,0,462,461,463,0
2754,0,0,0,462,461,462,0
2766,0,0,0,462,462,463,0
2778,0,0,0,462,461,462,0
2789,0,0,0,462,462,463,0
2801,0,0,0,462,462,462,0
2813,0,0,0,462,461,462,0
2825,0,0,0,462,461,462,0
2836,0,0,0,462,461,462,0
2848,0,0,0,462,461,462,0
2860,0,0,0,462,461,462,0
2871,0,0,0,462,462,462,0
2883,0,0,0,462,461,462,0
2895,0,0,0,462,461,462,0
2906,0,0,0,462,461,462,0
2918,0,0,0,462,461,462,0
2930,0,0,0,462,461,462,0
2942,0,0,0,462,461,462,0
2953,0,0,0,462,461,462,0
2965,0,0,0,462,461,462,0
2977,0,0,0,462,461,462,0
2988,0,0,0,462,461,462,0
3000,0,0,0,462,462,462,0
3012,0,0,0,462,461,462,0
3024,0,0,0,462,461,462,0
3035,0,0,0,462,461,462,0
3047,0,0,0,462,462,462,0
3059,0,0,0,462,461,462,0
3070,0,0,0,462,462,462,0
3082,0,0,0,462,462,462,0
3094,0,0,0,462,462,462,0
3105,0,0,0,462,462,462,0
3117,0,0,0,462,462,462,0
3129,0,0,0,462,462,462,0
3141,0,0,0,462,462,462,0
3152,0,0,0,462,462,462,0
3164,0,0,0,463,462,462,0
3176,0,0,0,462,462,462,0
3187,0,0,0,462,462,462,0
3199,0,0,0,463,462,462,0
3211,0,0,0,462,462,462,0
3223,0,0,0,462,462,462,0
3234,0,0,0,462,462,462,0
3246,0,0,0,462,461,462,0
3258,0,0,0,462,461,462,0
3269,0,0,0,462,462,462,0
3281,0,0,0,462,461,462,0
3293,0,0,0,462,461,462,0
3304,0,0,0,462,461,462,0
3316,0,0,0,462,461,462,0
3328,0,0,0,462,461,462,0
3340,0,0,0,462,461,462,0
3351,0,0,0,462,461,462,0
3363,0,0,0,462,461,462,0
3375,0,0,0,462,461,462,0
3386,0,0,0,462,461,462,0
3398,0,0,0,462,461,462,0
3410,0,0,0,462,461,462,0
3421,0,0,0,462,461,462,0
3433,0,0,0,462,461,462,0
3445,0,0,0,462,461,462,0
3457,0,0,0,462,461,462,0
3468,0,0,0,462,461,462,0
3480,0,0,0,462,461,462,0
3492,0,0,0,462,461,462,0
3503,0,0,0,462,461,462,0
3515,0,0,0,462,461,462,0
3527,0,0,0,462,461,462,0
3539,0,0,0,462,461,462,0
3550,0,0,0,462,462,462,0
3562,0,0,0,462,461,462,0
3574,0,0,0,462,462,462,0
3585,0,0,0,462,462,462,0
3597,0,0,0,462,461,462,0
3609,0,0,0,462,461,462,0
3620,0,0,0,462,461,462,0
3632,0,0,0,462,461,462,0
3644,0,0,0,462,461,462,0
3656,0,0,0,462,461,462,0
3667,0,0,0,462,461,462,0
3679,0,0,0,462,461,462,0
3691,0,0,0,462,461,462,0
3702,0,0,0,462,461,462,0
3714,0,0,0,462,461,462,0
3726,0,0,0,462,461,462,0
3738,0,0,0,462,461,462,0
3749,0,0,0,462,461,462,0
3761,0,0,0,462,461,462,0
3773,0,0,0,462,461,462,0
3784,0,0,0,462,461,462,0
3796,0,0,0,462,461,462,0
3808,0,0,0,462,461,462,0
3819,0,0,0,462,461,462,0
3831,0,0,0,462,461,462,0
3843,0,0,0,462,461,463,0
3855,0,0,0,462,461,462,0
3866,0,0,0,462,461,462,0
3878,0,0,0,462,461,462,0
3890,0,0,0,462,462,462,0
3901,0,0,0,462,461,462,0
3913,0,0,0,462,462,462,0
3925,0,0,0,462,462,462,0
3936,0,0,0,462,462,462,0
3948,0,0,0,462,462,462,0
3960,0,0,0,462,461,462,0
3972,0,0,0,462,462,463,0
3983,0,0,0,462,462,462,0
3995,0,0,0,462,462,462,0
4007,0,0,0,462,461,462,0
4018,0,0,0,462,462,462,0
4031,0,0,0,461,461,462,0
4043,0,0,0,462,461,462,0
4055,0,0,0,461,462,462,0
4067,0,0,0,462,461,462,0
4078,0,0,0,462,462,462,0
4090,0,0,0,462,461,462,0
4102,0,0,0,462,461,462,0
4114,0,0,0,462,462,462,0
4125,0,0,0,462,462,462,0
4137,0,0,0,462,461,463,0
4149,0,0,0,462,462,462,0
4160,0,0,0,462,461,462,0
4172,0,0,0,462,461,462,0
4184,0,0,0,462,462,462,0
4195,0,0,0,462,462,463,0
4207,0,0,0,462,462,462,0
4219,0,0,0,462,462,462,0
4231,0,0,0,462,462,462,0
4242,0,0,0,462,462,462,0
4254,0,0,0,462,461,462,0
4266,0,0,0,462,461,462,0
4277,0,0,0,462,461,462,0
4289,0,0,0,462,461,462,0
4301,0,0,0,462,461,462,0
4312,0,0,0,462,462,462,0
4324,0,0,0,462,461,462,0
4336,0,0,0,462,461,462,0
4348,0,0,0,462,462,462,0
4359,0,0,0,462,461,462,0
4371,0,0,0,462,461,462,0
4383,0,0,0,462,461,462,0
4394,0,0,0,462,462,462,0
4406,0,0,0,462,461,462,0
4418,0,0,0,462,461,462,0
4430,0,0,0,462,462,462,0
4441,0,0,0,462,461,462,0
4453,0,0,0,462,462,462,0
4465,0,0,0,462,461,462,0
4476,0,0,0,462,462,462,0
4488,0,0,0,462,461,462,0
4500,0,0,0,462,461,462,0
4511,0,0,0,462,461,462,0
4523,0,0,0,462,461,462,0
4535,0,0,0,462,461,462,0
4547,0,0,0,462,461,462,0
4558,0,0,0,462,461,462,0
4570,0,0,0,462,461,462,0
4582,0,0,0,462,461,462,0
4593,0,0,0,462,461,462,0
4605,0,0,0,462,461,462,0
4617,0,0,0,462,461,462,0
4629,0,0,0,462,461,462,0
4640,0,0,0,462,461,462,0
4652,0,0,0,462,461,462,0
4664,0,0,0,462,461,462,0
4675,0,0,0,462,461,462,0
4687,0,0,0,462,461,463,0
4699,0,0,0,462,461,463,0
4710,0,0,0,462,461,462,0
4722,0,0,0,462,461,462,0
4734,0,0,0,462,462,462,0
4746,0,0,0,462,461,462,0
4757,0,0,0,462,461,462,0
4769,0,0,0,462,461,462,0
4781,0,0,0,462,461,462,0
4792,0,0,0,462,461,462,0
4804,0,0,0,462,461,462,0
4816,0,0,0,462,461,462,0
4827,0,0,0,462,461,462,0
4839,0,0,0,462,461,462,0
4851,0,0,0,462,461,462,0
4863,0,0,0,462,461,462,0
4874,0,0,0,462,461,462,0
4886,0,0,0,462,461,462,0
4898,0,0,0,462,461,462,0
4909,0,0,0,462,461,462,0
4921,0,0,0,462,461,462,0
4933,0,0,0,462,461,463,0
4945,0,0,0,462,461,462,0
4956,0,0,0,462,461,462,0
4968,0,0,0,462,461,462,0
4980,0,0,0,462,462,462,0
4991,0,0,0,462,462,462,0
5003,0,0,0,462,461,462,0
5015,0,0,0,462,461,462,0
5026,0,0,0,462,461,462,0
5038,0,0,0,462,461,462,0
5050,0,0,0,462,462,462,0
5062,0,0,0,462,461,462,0
5073,0,0,0,462,461,462,0
5085,0,0,0,462,461,462,0
5097,0,0,0,462,461,462,0
5108,0,0,0,462,461,462,0
5120,0,0,0,462,461,462,0
5132,0,0,0,462,461,462,0
5143,0,0,0,462,461,462,0
5155,0,0,0,462,461,462,0
5167,0,0,0,462,461,462,0
5179,0,0,0,462,461,462,0
5190,0,0,0,462,461,462,0
5202,0,0,0,462,461,462,0
5214,0,0,0,462,461,462,0
5225,0,0,0,462,461,462,0
5237,0,0,0,462,461,462,0
5249,0,0,0,462,461,462,0
5261,0,0,0,462,461,462,0
5272,0,0,0,462,461,462,0
5284,0,0,0,462,461,462,0
5296,0,0,0,462,462,462,0
5307,0,0,0,462,461,462,0
5319,0,0,0,462,462,462,0
5331,0,0,0,462,462,462,0
5342,0,0,0,462,462,462,0
5354,0,0,0,462,461,462,0
5366,0,0,0,462,462,462,0
5378,0,0,0,462,462,462,0
5389,0,0,0,462,462,462,0
5401,0,0,0,462,462,462,0
5413,0,0,0,462,462,462,0
5424,0,0,0,462,462,462,0
5436,0,0,0,462,461,462,0
5448,0,0,0,462,461,462,0
5460,0,0,0,462,461,462,0
5471,0,0,0,462,462,462,0
5483,0,0,0,462,461,462,0
5495,0,0,0,462,462,462,0
5506,0,0,0,462,461,462,0
5518,0,0,0,462,461,462,0
5530,0,0,0,462,461,462,0
5541,0,0,0,462,461,462,0
5553,0,0,0,462,461,462,0
5565,0,0,0,462,461,462,0
5577,0,0,0,462,461,462,0
5588,0,0,0,462,461,462,0
5600,0,0,0,462,461,462,0
5612,0,0,0,462,461,462,0
5623,0,0,0,462,461,462,0
5635,0,0,0,462,461,462,0
5647,0,0,0,462,461,462,0
5658,0,0,0,462,461,462,0
5670,0,0,0,462,461,462,0
5682,0,0,0,462,461,462,0
5694,0,0,0,462,461,462,0
5705,0,0,0,462,461,462,0
5717,0,0,0,462,461,462,0
5729,0,0,0,462,461,462,0
5740,0,0,0,462,461,462,0
5752,0,0,0,462,461,462,0
5764,0,0,0,462,461,462,0
5776,0,0,0,462,461,462,0
5787,0,0,0,462,461,462,0
5799,0,0,0,462,461,462,0
5811,0,0,0,462,461,462,0
5822,0,0,0,462,461,462,0
5834,0,0,0,462,461,463,0
5846,0,0,0,462,461,462,0
5857,0,0,0,462,461,462,0
5869,0,0,0,462,461,462,0
5881,0,0,0,462,461,462,0
5893,0,0,0,462,461,463,0
5904,0,0,0,462,461,462,0
5916,0,0,0,462,461,462,0
5928,0,0,0,462,461,462,0
5939,0,0,0,462,461,462,0
5951,0,0,0,462,461,463,0
5963,0,0,0,462,461,462,0
5975,0,0,0,462,461,462,0
5986,0,0,0,462,461,462,0
5998,0,0,0,461,461,462,0
6010,0,0,0,462,461,462,0
6021,0,0,0,462,461,462,0
6034,0,0,0,462,461,462,0
6046,0,0,0,462,462,462,0
6058,0,0,0,462,462,462,0
6070,0,0,0,462,462,462,0
6081,0,0,0,462,461,462,0
6093,0,0,0,462,462,462,0
6105,0,0,0,462,461,462,0
6116,0,0,0,462,462,462,0
6128,0,0,0,463,462,462,0
6140,0,0,0,462,462,462,0
6152,0,0,0,462,462,462,0
6163,0,0,0,462,462,462,0
6175,0,0,0,462,461,462,0
6187,0,0,0,462,462,462,0
6198,0,0,0,462,461,462,0
6210,0,0,0,462,461,462,0
6222,0,0,0,462,461,463,0
6233,0,0,0,462,461,462,0
6245,0,0,0,462,461,462,0
6257,0,0,0,462,461,462,0
6269,0,0,0,462,461,462,0
6280,0,0,0,462,461,462,0
6292,0,0,0,462,461,462,0
6304,0,0,0,462,461,462,0
6315,0,0,0,462,461,462,0
6327,0,0,0,462,461,462,0
6339,0,0,0,462,461,462,0
6351,0,0,0,462,461,462,0
6362,0,0,0,462,462,462,0
6374,0,0,0,462,462,462,0
6386,0,0,0,462,462,462,0
6397,0,0,0,462,461,462,0
6409,0,0,0,462,462,462,0
6421,0,0,0,462,461,462,0
6432,0,0,0,462,461,462,0
6444,0,0,0,462,461,462,0
6456,0,0,0,462,461,462,0
6468,0,0,0,462,461,462,0
6479,0,0,0,462,461,462,0
6491,0,0,0,462,461,463,0
6503,0,0,0,462,461,462,0
6514,0,0,0,462,461,463,0
6526,0,0,0,462,461,463,0
6538,0,0,0,462,461,462,0
6549,0,0,0,462,461,463,0
6561,0,0,0,462,461,462,0
6573,0,0,0,462,461,462,0
6585,0,0,0,462,461,463,0
6596,0,0,0,462,461,462,0
6608,0,0,0,462,461,462,0
6620,0,0,0,463,461,462,0
6631,0,0,0,462,461,462,0
6643,0,0,0,462,461,462,0
6655,0,0,0,462,461,462,0
6667,0,0,0,462,461,462,0
6678,0,0,0,462,461,462,0
6690,0,0,0,462,461,462,0
6702,0,0,0,462,461,462,0
6713,0,0,0,462,461,462,0
6725,0,0,0,462,462,462,0
6737,0,0,0,462,462,462,0
6748,0,0,0,462,461,462,0
6760,0,0,0,462,462,462,0
6772,0,0,0,462,461,462,0
6784,0,0,0,462,461,462,0
6795,0,0,0,462,461,462,0
6807,0,0,0,462,461,462,0
6819,0,0,0,462,461,462,0
6830,0,0,0,462,461,462,0
6842,0,0,0,462,461,462,0
6854,0,0,0,462,461,462,0
6866,0,0,0,462,461,462,0
6877,0,0,0,462,461,462,0
6889,0,0,0,462,461,462,0
6901,0,0,0,462,461,462,0
6912,0,0,0,462,461,462,0
6924,0,0,0,462,461,462,0
6936,0,0,0,462,461,462,0
6947,0,0,0,462,461,462,0
6959,0,0,0,462,461,462,0
6971,0,0,0,462,461,462,0
6983,0,0,0,462,461,462,0
6994,0,0,0,462,461,463,0
7006,0,0,0,462,461,462,0
7018,0,0,0,462,461,463,0
7029,0,0,0,462,461,462,0
7041,0,0,0,462,461,462,0
7053,0,0,0,462,461,462,0
7064,0,0,0,462,461,462,0
7076,0,0,0,462,461,462,0
7088,0,0,0,462,462,462,0
7100,0,0,0,462,462,462,0
7111,0,0,0,462,461,462,0
7123,0,0,0,462,461,462,0
7135,0,0,0,462,461,462,0
7146,0,0,0,462,461,462,0
7158,0,0,0,462,461,462,0
7170,0,0,0,462,461,462,0
7182,0,0,0,462,461,462,0
7193,0,0,0,462,461,462,0
7205,0,0,0,462,461,462,0
7217,0,0,0,461,461,462,0
7228,0,0,0,462,461,462,0
7240,0,0,0,461,461,462,0
7252,0,0,0,462,461,462,0
7263,0,0,0,462,461,462,0
7275,0,0,0,462,461,462,0
7287,0,0,0,462,461,462,0
7299,0,0,0,462,461,462,0
7310,0,0,0,462,461,462,0
7322,0,0,0,462,461,462,0
7334,0,0,0,462,461,462,0
7345,0,0,0,462,461,462,0
7357,0,0,0,462,461,462,0
7369,0,0,0,462,461,462,0
7380,0,0,0,462,462,462,0
7392,0,0,0,462,462,462,0
7404,0,0,0,462,462,462,0
7416,0,0,0,462,462,462,0
7427,0,0,0,462,461,462,0
7439,0,0,0,2,,,
12,0,0,0,460,443,462,1
25,0,0,0,455,436,462,0
37,0,0,0,414,434,463,0
49,0,0,0,419,435,463,0
60,0,0,0,393,433,463,0
72,0,0,0,404,438,463,0
84,0,0,0,388,430,463,0
96,0,0,0,374,428,463,0
107,0,0,0,352,433,463,0
119,0,0,0,334,433,463,0
131,0,0,0,316,427,462,0
142,0,0,0,306,425,463,0
154,0,0,0,286,423,463,0
166,0,0,0,282,425,462,0
178,0,0,0,274,422,463,0
189,0,0,0,267,418,463,0
201,0,0,0,277,422,463,0
213,0,0,0,263,421,462,0
224,0,0,0,268,425,462,0
236,0,0,0,271,421,462,0
248,0,0,0,269,422,462,0
259,0,0,0,264,422,462,0
271,0,0,0,262,420,462,0
283,0,0,0,259,413,463,0
295,0,0,0,268,420,463,0
306,0,0,0,259,422,463,0
318,0,0,0,272,413,463,0
330,0,0,0,272,416,463,0
341,0,0,0,276,412,462,0
353,0,0,0,283,420,463,0
365,0,0,0,283,418,463,0
377,0,0,0,286,416,462,0
388,0,0,0,281,414,462,0
400,0,0,0,285,417,462,0
412,0,0,0,278,416,462,0
423,0,0,0,278,416,462,0
435,0,0,0,288,412,462,0
447,0,0,0,295,409,462,0
458,0,0,0,305,412,462,0
470,0,0,0,318,415,462,0
482,0,0,0,294,423,463,0
494,0,0,0,322,422,462,0
505,0,0,0,309,417,462,0
517,0,0,0,347,425,463,0
529,0,0,0,371,427,463,0
540,0,0,0,386,432,463,0
552,0,0,0,405,434,463,0
564,0,0,0,373,434,463,0
575,0,0,0,380,429,463,0
587,0,0,0,412,426,463,0
599,0,0,0,425,433,462,0
611,0,0,0,454,429,463,0
622,5,0,0,485,447,462,0
634,0,0,0,465,450,463,0
646,18,0,0,517,458,463,0
657,16,0,0,512,457,463,0
669,10,6,0,498,463,462,0
681,18,2,0,518,461,462,0
693,16,0,0,512,457,462,0
704,30,0,0,547,452,463,0
716,40,0,0,572,454,463,0
728,46,18,0,587,469,463,0
739,37,24,0,564,472,462,0
751,48,27,0,592,473,462,0
763,37,31,0,564,475,462,0
774,51,33,0,599,476,462,0
786,50,37,0,597,478,462,0
798,39,39,0,568,479,462,0
810,48,49,0,592,484,462,0
821,41,49,0,573,484,462,0
833,36,63,0,562,491,462,0
845,39,69,0,569,494,462,0
856,29,61,0,544,490,462,0
868,34,78,0,557,498,462,0
880,28,84,0,542,501,462,0
892,20,92,0,524,505,462,0
903,13,86,0,506,502,462,0
915,6,96,0,489,507,462,0
927,0,84,0,415,501,462,0
938,0,98,0,462,508,463,0
950,0,100,0,409,510,463,0
962,0,98,0,393,508,463,0
973,0,96,0,358,507,462,0
985,0,96,0,357,507,463,0
997,0,94,0,340,506,462,0
1009,0,94,0,336,506,463,0
1020,0,88,0,318,503,463,0
1032,0,76,0,290,497,463,0
1044,0,65,0,267,492,462,0
1055,0,51,0,257,485,463,0
1067,0,43,0,239,481,462,0
1079,0,31,0,230,475,463,0
1091,0,20,0,223,470,463,0
1102,0,6,0,201,463,462,0
1114,0,0,0,193,457,463,0
1126,0,0,0,169,449,462,0
1137,0,0,0,179,446,463,0
1149,0,0,0,154,442,463,0
1161,0,0,0,158,440,463,0
1172,0,0,0,152,437,463,0
1184,0,0,0,151,434,462,0
1196,0,0,0,160,433,463,0
1208,0,0,0,152,434,462,0
1219,0,0,0,144,433,462,0
1231,0,0,0,163,435,462,0
1243,0,0,0,165,435,462,0
1254,0,0,0,173,432,462,0
1266,0,0,0,169,433,462,0
1278,0,0,0,178,430,462,0
1289,0,0,0,187,430,462,0
1301,0,0,0,204,428,462,0
1313,0,0,0,221,427,462,0
1325,0,0,0,235,428,462,0
1336,0,0,0,248,428,462,0
1348,0,0,0,261,425,462,0
1360,0,0,0,274,426,462,0
1371,0,0,0,292,425,462,0
1383,0,0,0,307,426,462,0
1395,0,0,0,320,428,462,0
1407,0,0,0,333,428,462,0
1418,0,0,0,349,428,462,0
1430,0,0,0,362,428,462,0
1442,0,0,0,374,429,462,0
1453,0,0,0,385,430,462,0
1465,0,0,0,398,432,462,0
1477,0,0,0,408,433,462,0
1488,0,0,0,415,435,462,0
1500,0,0,0,429,435,462,0
1512,0,0,0,438,437,462,0
1524,0,0,0,449,438,462,0
1535,0,0,0,456,440,462,0
1547,0,0,0,465,443,462,0
1559,0,0,0,471,444,462,0
1570,1,0,0,477,445,462,0
1582,4,0,0,483,447,462,0
1594,6,0,0,488,450,462,0
1606,7,0,0,492,452,462,0
1617,10,0,0,499,452,462,0
1629,12,0,0,503,454,462,0
1641,13,0,0,505,456,462,0
1652,16,0,0,512,457,462,0
1664,16,0,0,514,458,462,0
1676,17,0,0,516,460,462,0
1687,18,0,0,518,460,463,0
1699,20,4,0,522,462,462,0
1711,20,6,0,523,463,463,0
1723,21,8,0,526,464,463,0
1734,20,12,0,524,466,463,0
1746,22,10,0,528,465,462,0
1758,22,12,0,528,466,462,0
1769,23,12,0,529,466,462,0
1781,23,14,0,529,467,462,0
1793,23,14,0,531,467,462,0
1804,23,18,0,531,469,462,0
1816,23,18,0,531,469,462,0
1828,23,16,0,529,468,463,0
1840,22,18,0,528,469,463,0
1851,24,18,0,532,469,463,0
1863,24,20,0,532,470,462,0
1875,24,22,0,533,471,463,0
1886,24,24,0,533,472,463,0
1898,23,24,0,531,472,463,0
1910,23,22,0,531,471,463,0
1922,23,22,0,531,471,462,0
1933,23,22,0,531,471,462,0
1945,23,24,0,530,472,462,0
1957,23,24,0,529,472,462,0
1968,23,24,0,529,472,463,0
1980,22,24,0,527,472,463,0
1992,22,24,0,527,472,462,0
2003,21,24,0,526,472,462,0
2015,21,24,0,525,472,462,0
2028,21,24,0,525,472,462,0
2040,19,24,0,521,472,462,0
2052,20,24,0,523,472,463,0
2063,20,27,0,524,473,463,0
2075,20,24,0,523,472,463,0
2087,20,27,0,523,473,462,0
2099,20,29,0,522,474,463,0
2110,19,31,0,520,475,462,0
2122,18,27,0,518,473,462,0
2134,19,31,0,520,475,462,0
2145,19,29,0,520,474,462,0
2157,19,27,0,520,473,463,0
2169,18,27,0,518,473,462,0
2181,19,29,0,520,474,462,0
2192,19,31,0,521,475,462,0
2204,18,31,0,518,475,462,0
2216,17,31,0,515,475,462,0
2227,18,29,0,517,474,462,0
2239,18,27,0,519,473,462,0
2251,18,16,0,518,468,462,0
2262,16,29,0,514,474,462,0
2274,20,29,0,522,474,462,0
2286,19,24,0,521,472,462,0
2298,19,20,0,521,470,462,0
2309,18,27,0,517,473,462,0
2321,19,20,0,521,470,462,0
2333,15,27,0,510,473,462,0
2344,18,14,0,519,467,462,0
2356,18,12,0,519,466,462,0
2368,19,12,0,521,466,462,0
2380,20,12,0,522,466,462,0
2391,21,22,0,526,471,462,0
2403,22,22,0,527,471,462,0
2415,22,29,0,528,474,462,0
2426,22,35,0,528,477,462,0
2438,21,35,0,525,477,462,0
2450,25,43,0,535,481,462,0
2461,27,55,0,540,487,462,0
2473,27,59,0,540,489,462,0
2485,30,67,0,548,493,462,0
2497,31,78,0,549,498,462,0
2508,33,82,0,555,500,462,0
2520,33,92,0,554,505,462,0
2532,38,94,0,567,506,462,0
2543,37,90,0,565,504,462,0
2555,42,100,0,577,512,462,0
2567,41,100,0,574,515,462,0
2579,47,100,0,589,513,462,0
2590,48,100,0,592,520,462,0
2602,57,100,0,613,520,462,0
2614,60,100,0,620,518,462,0
2625,65,100,0,633,512,462,0
2637,64,100,0,630,518,462,0
2649,73,100,0,651,520,462,0
2660,75,100,0,658,519,462,0
2672,75,100,0,658,516,462,0
2684,74,100,0,654,514,462,0
2696,82,100,0,674,517,462,0
2707,80,98,0,670,508,463,0
2719,89,100,0,690,514,463,0
2731,88,100,0,688,512,463,0
2742,95,100,0,706,509,463,0
2754,84,88,0,678,503,463,0
2766,93,88,0,701,503,463,0
2778,93,86,0,700,502,462,0
2789,94,76,0,703,497,463,0
2801,93,67,0,701,493,463,0
2813,99,63,0,716,491,463,0
2824,97,61,0,711,490,463,0
2836,89,63,0,690,491,462,0
2848,81,51,0,671,485,463,0
2859,48,6,0,592,463,463,0
2871,82,41,0,673,480,463,0
2883,90,29,0,693,474,462,0
2895,100,39,0,718,479,462,0
2906,100,35,0,721,477,462,0
2918,93,24,0,701,472,462,0
2930,91,24,0,695,472,462,0
2941,75,12,0,657,466,462,0
2953,73,0,0,651,459,462,0
2965,66,0,0,636,460,462,0
2976,62,0,0,626,450,463,0
2988,59,0,0,619,452,463,0
3000,57,0,0,613,449,463,0
3012,50,0,0,597,449,463,0
3023,36,0,0,561,446,463,0
3035,14,0,0,507,439,462,0
3047,12,0,0,503,442,462,0
3058,9,0,0,497,443,462,0
3070,8,0,0,493,436,462,0
3082,0,0,0,468,430,462,0
3094,0,0,0,462,429,462,0
3105,0,0,0,453,432,462,0
3117,0,0,0,431,440,462,0
3129,0,0,0,408,435,462,0
3140,0,0,0,380,437,462,0
3152,0,0,0,384,434,463,0
3164,0,0,0,371,429,462,0
3175,0,0,0,343,426,462,0
3187,0,0,0,346,432,462,0
3199,0,0,0,335,432,462,0
3211,0,0,0,317,428,462,0
3222,0,0,0,309,431,462,0
3234,0,0,0,297,427,462,0
3246,0,0,0,277,424,462,0
3257,0,0,0,269,420,462,0
3269,0,0,0,272,424,462,0
3281,0,0,0,266,419,462,0
3293,0,0,0,249,413,462,0
3304,0,0,0,237,415,462,0
3316,0,0,0,262,414,462,0
3328,0,0,0,270,406,462,0
3339,0,0,0,271,411,462,0
3351,0,0,0,280,411,462,0
3363,0,0,0,281,405,462,0
3374,0,0,0,284,406,462,0
3386,0,0,0,292,409,462,0
3398,0,0,0,304,405,462,0
3410,0,0,0,316,405,462,0
3421,0,0,0,309,401,462,0
3433,0,0,0,325,402,462,0
3445,0,0,0,332,406,463,0
3456,0,0,0,336,405,462,0
3468,0,0,0,334,405,463,0
3480,0,0,0,328,400,463,0
3491,0,0,0,333,398,462,0
3503,0,0,0,336,401,463,0
3515,0,0,0,330,402,463,0
3527,0,0,0,332,398,463,0
3538,0,0,0,334,400,463,0
3550,0,0,0,332,401,462,0
3562,0,0,0,329,399,462,0
3573,0,0,0,323,396,463,0
3585,0,0,0,331,396,462,0
3597,0,0,0,337,403,462,0
3609,0,0,0,339,405,462,0
3620,0,0,0,344,402,462,0
3632,0,0,0,329,400,462,0
3644,0,0,0,347,399,463,0
3655,0,0,0,356,398,462,0
3667,0,0,0,364,396,463,0
3679,0,0,0,376,404,463,0
3690,0,0,0,384,405,462,0
3702,0,0,0,391,406,462,0
3714,0,0,0,370,408,463,0
3726,0,0,0,396,412,463,0
3737,0,0,0,424,408,463,0
3749,0,0,0,427,414,463,0
3761,0,0,0,448,417,462,0
3772,0,0,0,435,419,462,0
3784,0,0,0,458,419,462,0
3796,0,0,0,467,416,462,0
3808,0,0,0,473,410,462,0
3819,31,0,0,549,424,463,0
3831,25,0,0,536,435,462,0
3843,36,0,0,562,447,462,0
3854,25,0,0,535,449,462,0
3866,42,0,0,576,457,462,0
3878,33,0,0,555,448,462,0
3889,46,0,0,587,444,463,0
3901,46,0,0,586,457,462,0
3913,59,20,0,618,470,462,0
3925,64,35,0,630,477,462,0
3936,71,47,0,647,483,462,0
3948,62,49,0,626,484,462,0
3960,61,47,0,624,483,462,0
3971,69,57,0,642,488,463,0
3983,60,57,0,620,488,462,0
3995,68,57,0,639,488,462,0
4006,61,65,0,622,492,462,0
4018,66,78,0,635,498,463,0
4031,44,86,0,582,502,462,0
4043,57,86,0,614,502,462,0
4055,48,92,0,592,505,462,0
4066,46,100,0,586,512,462,0
4078,40,100,0,571,513,462,0
4090,27,100,0,540,509,462,0
4102,19,100,0,520,515,462,0
4113,19,100,0,520,517,463,0
4125,14,100,0,508,520,463,0
4137,0,100,0,453,521,463,0
4148,0,100,0,453,525,462,0
4160,0,100,0,421,523,462,0
4172,0,100,0,434,526,462,0
4184,0,100,0,394,523,462,0
4195,0,100,0,374,520,462,0
4207,0,100,0,331,517,462,0
4219,0,100,0,327,514,463,0
4230,0,96,0,303,507,462,0
4242,0,82,0,277,500,463,0
4254,0,69,0,249,494,463,0
4265,0,57,0,234,488,463,0
4277,0,47,0,239,483,463,0
4289,0,33,0,209,476,463,0
4301,0,22,0,215,471,462,0
4312,0,10,0,184,465,462,0
4324,0,0,0,178,460,462,0
4336,0,0,0,154,454,462,0
4347,0,0,0,161,453,462,0
4359,0,0,0,142,447,462,0
4371,0,0,0,141,444,463,0
4383,0,0,0,147,442,462,0
4394,0,0,0,142,440,463,0
4406,0,0,0,140,443,463,0
4418,0,0,0,150,440,462,0
4429,0,0,0,153,440,463,0
4441,0,0,0,163,438,462,0
4453,0,0,0,166,436,463,0
4464,0,0,0,183,433,463,0
4476,0,0,0,196,432,462,0
4488,0,0,0,203,431,462,0
4500,0,0,0,221,430,462,0
4511,0,0,0,232,430,462,0
4523,0,0,0,250,429,462,0
4535,0,0,0,266,428,462,0
4546,0,0,0,281,429,462,0
4558,0,0,0,296,429,462,0
4570,0,0,0,313,430,462,0
4581,0,0,0,325,432,462,0
4593,0,0,0,337,430,462,0
4605,0,0,0,353,432,462,0
4617,0,0,0,366,432,463,0
4628,0,0,0,377,435,462,0
4640,0,0,0,388,435,462,0
4652,0,0,0,401,436,462,0
4663,0,0,0,412,437,462,0
4675,0,0,0,419,438,462,0
4687,0,0,0,429,439,462,0
4699,0,0,0,438,441,462,0
4710,0,0,0,446,444,462,0
4722,0,0,0,453,448,462,0
4734,0,0,0,461,448,462,0
4745,0,0,0,470,450,462,0
4757,0,0,0,475,452,462,0
4769,3,0,0,481,453,462,0
4780,5,0,0,486,456,462,0
4792,6,0,0,488,458,462,0
4804,8,2,0,494,461,462,0
4816,10,2,0,499,461,462,0
4827,12,6,0,504,463,462,0
4839,14,8,0,507,464,462,0
4851,15,12,0,510,466,463,0
4862,15,12,0,510,466,462,0
4874,16,12,0,512,466,462,0
4886,16,14,0,513,467,462,0
4898,16,14,0,514,467,462,0
4909,17,14,0,516,467,462,0
4921,18,16,0,517,468,463,0
4933,17,20,0,516,470,462,0
4944,18,20,0,517,470,462,0
4956,18,22,0,517,471,463,0
4968,18,24,0,517,472,462,0
4979,18,27,0,518,473,462,0
4991,18,27,0,519,473,462,0
5003,18,29,0,518,474,462,0
5015,18,31,0,517,475,462,0
5026,18,31,0,517,475,462,0
5038,17,33,0,516,476,463,0
5050,17,35,0,515,477,463,0
5061,16,33,0,512,476,463,0
5073,16,35,0,513,477,463,0
5085,16,33,0,513,476,462,0
5097,16,33,0,513,476,463,0
5108,15,35,0,511,477,462,0
5120,15,37,0,510,478,463,0
5132,15,37,0,510,478,462,0
5143,14,37,0,509,478,463,0
5155,14,37,0,509,478,462,0
5167,14,41,0,509,480,462,0
5178,14,43,0,507,481,462,0
5190,14,39,0,507,479,462,0
5202,14,39,0,507,479,462,0
5214,13,39,0,506,479,462,0
5225,13,41,0,505,480,462,0
5237,12,43,0,503,481,463,0
5249,12,41,0,503,480,462,0
5260,11,41,0,502,480,462,0
5272,12,43,0,503,481,463,0
5284,12,45,0,503,482,463,0
5296,11,43,0,501,481,462,0
5307,10,43,0,499,481,462,0
5319,11,41,0,500,480,462,0
5331,10,45,0,499,482,462,0
5342,10,43,0,498,481,462,0
5354,10,45,0,499,482,462,0
5366,10,45,0,498,482,462,0
5377,10,47,0,498,483,462,0
5389,10,47,0,499,483,462,0
5401,10,49,0,498,484,462,0
5413,10,45,0,498,482,462,0
5424,10,43,0,498,481,462,0
5436,9,49,0,496,484,463,0
5448,10,49,0,498,484,463,0
5459,10,49,0,499,484,463,0
5471,10,49,0,499,484,463,0
5483,10,47,0,499,483,463,0
5494,10,49,0,499,484,462,0
5506,11,53,0,500,486,463,0
5518,9,45,0,497,482,463,0
5530,10,51,0,499,485,462,0
5541,11,55,0,500,487,463,0
5553,11,51,0,501,485,463,0
5565,10,57,0,499,488,462,0
5576,11,55,0,502,487,462,0
5588,10,49,0,498,484,462,0
5600,9,53,0,496,486,463,0
5612,11,55,0,501,487,462,0
5623,11,45,0,501,482,462,0
5635,11,41,0,502,480,463,0
5647,10,43,0,499,481,463,0
5658,13,49,0,505,484,462,0
5670,12,49,0,503,484,463,0
5682,13,43,0,505,481,462,0
5693,16,45,0,512,482,463,0
5705,17,45,0,515,482,462,0
5717,18,49,0,518,484,463,0
5729,18,57,0,519,488,463,0
5740,20,65,0,524,492,463,0
5752,23,78,0,529,498,463,0
5764,21,86,0,526,502,462,0
5775,23,92,0,531,505,463,0
5787,26,86,0,537,502,463,0
5799,28,96,0,542,507,463,0
5811,32,100,0,553,513,463,0
5822,34,100,0,558,515,463,0
5834,34,100,0,556,518,463,0
5846,36,100,0,563,518,462,0
5857,36,100,0,563,522,462,0
5869,35,100,0,560,522,463,0
5881,39,100,0,568,526,463,0
5892,43,100,0,579,525,463,0
5904,45,100,0,585,528,462,0
5916,45,100,0,585,526,462,0
5928,48,100,0,591,525,463,0
5939,53,100,0,603,521,462,0
5951,51,100,0,599,521,462,0
5963,52,100,0,600,519,463,0
5974,53,100,0,603,519,462,0
5986,62,100,0,626,513,462,0
5998,57,100,0,612,516,462,0
6010,68,100,0,640,517,462,0
6021,69,100,0,643,513,463,0
6034,78,100,0,665,514,462,0
6046,82,100,0,674,519,463,0
6058,85,100,0,681,515,462,0
6069,90,100,0,694,518,463,0
6081,93,100,0,701,510,463,0
6093,92,100,0,698,512,462,0
6105,99,100,0,716,509,462,0
6116,93,96,0,702,507,462,0
6128,99,100,0,716,511,462,0
6140,96,86,0,708,502,462,0
6151,95,80,0,706,499,462,0
6163,85,65,0,681,492,462,0
6175,87,49,0,686,484,462,0
6186,77,39,0,661,479,462,0
6198,84,41,0,678,480,462,0
6210,71,35,0,648,477,462,0
6222,90,33,0,694,476,462,0
6233,87,29,0,687,474,462,0
6245,87,29,0,686,474,462,0
6257,82,20,0,675,470,462,0
6268,93,18,0,702,469,462,0
6280,95,20,0,706,470,462,0
6292,90,4,0,694,462,462,0
6304,84,0,0,678,458,462,0
6315,78,10,0,665,465,462,0
6327,69,12,0,642,466,462,0
6339,68,4,0,639,462,462,0
6350,54,0,0,605,459,462,0
6362,42,0,0,576,456,462,0
6374,39,0,0,568,450,462,0
6385,26,0,0,537,453,462,0
6397,14,0,0,509,445,462,0
6409,7,0,0,491,451,462,0
6421,8,0,0,493,450,462,0
6432,0,0,0,472,450,462,0
6444,0,0,0,455,440,462,0
6456,0,0,0,440,454,462,0
6467,0,0,0,417,451,462,0
6479,0,0,0,379,445,462,0
6491,0,0,0,385,438,462,0
6502,0,0,0,390,448,462,0
6514,0,0,0,384,448,462,0
6526,0,0,0,377,448,462,0
6538,0,0,0,378,442,462,0
6549,0,0,0,375,450,462,0
6561,0,0,0,373,440,462,0
6573,0,0,0,371,438,462,0
6584,0,0,0,372,445,462,0
6596,0,0,0,373,443,462,0
6608,0,0,0,359,439,462,0
6620,0,0,0,355,439,462,0
6631,0,0,0,342,435,462,0
6643,0,0,0,331,434,463,0
6655,0,0,0,325,430,463,0
6666,0,0,0,308,430,463,0
6678,0,0,0,292,427,463,0
6690,0,0,0,282,430,463,0
6701,0,0,0,271,422,463,0
6713,0,0,0,262,426,462,0
6725,0,0,0,262,423,462,0
6737,0,0,0,259,420,462,0
6748,0,0,0,266,426,462,0
6760,0,0,0,255,426,462,0
6772,0,0,0,267,431,462,0
6783,0,0,0,243,428,462,0
6795,0,0,0,257,424,462,0
6807,0,0,0,293,427,462,0
6819,0,0,0,301,430,462,0
6830,0,0,0,317,435,463,0
6842,0,0,0,322,438,462,0
6854,0,0,0,341,443,463,0
6865,0,0,0,342,439,462,0
6877,0,0,0,349,435,462,0
6889,0,0,0,362,447,463,0
6900,0,0,0,377,446,462,0
6912,0,0,0,387,449,463,0
6924,0,0,0,389,443,463,0
6936,0,0,0,379,442,463,0
6947,0,0,0,406,447,463,0
6959,0,0,0,407,453,463,0
6971,0,0,0,422,444,463,0
6982,0,0,0,428,450,462,0
6994,0,0,0,432,441,463,0
7006,0,0,0,436,450,462,0
7017,0,0,0,440,451,463,0
7029,0,0,0,457,452,462,0
7041,0,0,0,451,449,462,0
7053,0,0,0,445,450,462,0
7064,0,0,0,457,452,462,0
7076,0,0,0,458,453,462,0
7088,0,0,0,459,455,462,0
7099,3,0,0,481,452,462,0
7111,0,0,0,452,451,462,0
7123,5,0,0,485,450,462,0
7135,0,0,0,436,448,462,0
7146,0,0,0,474,449,462,0
7158,0,0,0,435,450,462,0
7170,0,0,0,462,450,462,0
7181,11,0,0,500,448,462,0
7193,0,0,0,461,453,463,0
7205,15,2,0,510,461,463,0
7216,0,0,0,459,456,462,0
7228,15,0,0,510,444,463,0
7240,14,0,0,508,448,463,0
7252,18,0,0,517,452,463,0
7263,19,0,0,520,453,462,0
7275,9,0,0,495,452,463,0
7287,30,0,0,547,452,462,0
7298,33,0,0,554,457,462,0
7310,33,0,0,554,454,462,0
7322,42,0,0,577,455,462,0
7334,36,4,0,561,462,462,0
7345,32,20,0,551,470,462,0
7357,59,12,0,619,466,462,0
7369,42,16,0,577,468,462,0
7380,45,14,0,583,467,462,0
7392,60,45,0,621,482,462,0
7404,46,37,0,587,478,462,0
7415,55,47,0,608,483,462,0
7427,41,57,0,575,488,462,0
7439,23,33,0,531,476,462,0
7451,47,57,0,589,488,462,0
7462,30,49,0,548,484,462,0
7474,41,61,0,573,490,462,0
7486,9,67,0,497,493,462,0
7497,20,90,0,523,504,463,0
7509,7,65,0,492,492,462,0
7521,3,78,0,481,498,462,0
7532,0,88,0,455,503,463,0
7544,2,86,0,479,502,463,0
7556,0,84,0,418,501,463,0
7568,0,90,0,419,504,462,0
7579,0,92,0,403,505,463,0
7591,0,84,0,383,501,463,0
7603,0,78,0,345,498,463,0
7614,0,71,0,327,495,463,0
7626,0,63,0,327,491,462,0
7638,0,39,0,295,479,462,0
7650,0,29,0,281,474,462,0
7661,0,10,0,241,465,462,0
7673,0,0,0,239,453,462,0
7685,0,0,0,213,449,462,0
7696,0,0,0,191,434,462,0
7708,0,0,0,162,433,462,0
7720,0,0,0,148,424,462,0
7731,0,0,0,146,421,462,0
7743,0,0,0,123,415,462,0
7755,0,0,0,111,410,462,0
7767,0,0,0,100,406,462,0
7778,0,0,0,103,402,462,0
7790,0,0,0,106,401,462,0
7802,0,0,0,104,402,463,0
7813,0,0,0,102,400,463,0
7825,0,0,0,117,401,462,0
7837,0,0,0,129,398,462,0
7849,0,0,0,132,396,462,0
7860,0,0,0,146,391,462,0
7872,0,0,0,155,390,462,0
7884,0,0,0,174,388,463,0
7895,0,0,0,179,389,462,0
7907,0,0,0,203,386,463,0
7919,0,0,0,218,387,462,0
7930,0,0,0,236,387,462,0
7942,0,0,0,250,388,462,0
7954,0,0,0,268,389,462,0
7966,0,0,0,284,388,463,0
7977,0,0,0,299,388,463,0
7989,0,0,0,313,390,463,0
8001,0,0,0,328,391,463,0
8012,0,0,0,340,394,463,0
8024,0,0,0,351,394,463,0
8037,0,0,0,365,396,462,0
8049,0,0,0,377,397,463,0
8061,0,0,0,386,396,463,0
8072,0,0,0,395,399,463,0
8084,0,0,0,404,400,462,0
8096,0,0,0,415,403,463,0
8108,0,0,0,422,405,462,0
8119,0,0,0,428,407,463,0
8131,0,0,0,434,409,463,0
8143,0,0,0,441,412,463,0
8154,0,0,0,448,413,463,0
8166,0,0,0,453,416,462,0
8178,0,0,0,459,418,463,0
8189,0,0,0,463,421,463,0
8201,0,0,0,470,423,462,0
8213,0,0,0,474,424,462,0
8225,2,0,0,478,426,462,0
8236,3,0,0,481,428,462,0
8248,4,0,0,484,430,462,0
8260,6,0,0,488,433,462,0
8271,7,0,0,491,435,462,0
8283,8,0,0,493,437,462,0
8295,8,0,0,493,440,462,0
8307,9,0,0,497,441,462,0
8318,11,0,0,501,442,462,0
8330,11,0,0,502,442,462,0
8342,12,0,0,503,443,462,0
8353,12,0,0,503,444,462,0
8365,13,0,0,505,446,462,0
8377,13,0,0,506,446,462,0
8388,14,0,0,507,448,462,0
8400,14,0,0,508,450,462,0
8412,14,0,0,509,451,462,0
8424,14,0,0,507,453,462,0
8435,15,0,0,510,454,462,0
8447,14,0,0,508,456,462,0
8459,14,0,0,509,455,462,0
8470,15,0,0,510,456,462,0
8482,15,0,0,510,456,462,0
8494,16,0,0,513,457,462,0
8505,16,0,0,514,458,462,0
8517,17,0,0,515,460,462,0
8529,16,2,0,513,461,462,0
8541,15,6,0,511,463,462,0
8552,16,10,0,514,465,462,0
8564,16,10,0,514,465,462,0
8576,16,10,0,513,465,462,0
8587,16,10,0,512,465,462,0
8599,16,12,0,513,466,462,0
8611,16,14,0,513,467,462,0
8623,15,16,0,510,468,462,0
8634,16,16,0,514,468,462,0
8646,16,18,0,514,469,462,0
8658,17,22,0,515,471,462,0
8669,17,22,0,515,471,462,0
8681,18,24,0,517,472,462,0
8693,18,24,0,517,472,462,0
8704,18,20,0,517,470,462,0
8716,18,27,0,517,473,462,0
8728,18,31,0,519,475,462,0
8740,17,31,0,516,475,462,0
8751,17,27,0,516,473,462,0
8763,18,33,0,518,476,462,0
8775,16,29,0,512,474,462,0
8786,18,33,0,519,476,462,0
8798,18,33,0,517,476,462,0
8810,19,27,0,520,473,462,0
8822,19,31,0,521,475,462,0
8833,20,29,0,524,474,462,0
8845,20,33,0,522,476,462,0
8857,22,33,0,527,476,463,0
8868,23,39,0,529,479,462,0
8880,25,55,0,534,487,462,0
8892,23,61,0,531,490,462,0
8903,24,53,0,533,486,462,0
8915,23,67,0,531,493,462,0
8927,25,49,0,534,484,462,0
8939,28,63,0,542,491,462,0
8950,30,80,0,546,499,462,0
8962,33,94,0,554,506,462,0
8974,32,78,0,552,498,462,0
8985,33,88,0,554,503,462,0
8997,36,86,0,563,502,462,0
9009,37,96,0,564,507,462,0
9021,39,100,0,570,509,462,0
9032,41,100,0,575,514,462,0
9044,47,100,0,588,522,462,0
9056,46,100,0,586,525,462,0
9067,52,100,0,602,533,462,0
9079,54,100,0,605,529,462,0
9091,53,100,0,603,541,462,0
9102,55,100,0,609,536,462,0
9114,52,100,0,602,535,462,0
9126,52,100,0,601,533,462,0
9138,55,100,0,608,530,462,0
9149,57,100,0,614,537,462,0
9161,55,100,0,608,538,462,0
9173,59,100,0,617,532,462,0
9184,57,100,0,612,528,462,0
9196,59,100,0,619,525,462,0
9208,55,100,0,609,525,462,0
9220,60,100,0,621,530,462,0
9231,61,100,0,623,527,462,0
9243,66,100,0,635,523,462,0
9255,66,100,0,635,527,462,0
9266,71,100,0,647,525,462,0
9278,71,100,0,648,522,462,0
9290,71,100,0,648,522,462,0
9301,67,100,0,638,521,462,0
9313,71,100,0,647,520,462,0
9325,65,100,0,632,519,462,0
9337,61,100,0,624,516,462,0
9348,68,100,0,639,514,462,0
9360,73,100,0,653,513,462,0
9372,71,100,0,648,517,462,0
9383,72,100,0,649,509,462,0
9395,57,90,0,613,504,462,0
9407,74,98,0,655,508,462,0
9419,73,92,0,652,505,462,0
9430,73,78,0,653,498,462,0
9442,63,59,0,628,489,462,0
9454,73,71,0,653,495,462,0
9465,64,63,0,629,491,462,0
9477,62,47,0,625,483,462,0
9489,39,22,0,568,471,463,0
9500,68,33,0,639,476,462,0
9512,73,37,0,652,478,462,0
9524,65,29,0,633,474,462,0
9536,67,14,0,638,467,462,0
9547,66,20,0,636,470,462,0
9559,66,20,0,634,470,462,0
9571,59,2,0,617,461,462,0
9582,49,4,0,593,462,462,0
9594,48,0,0,592,459,462,0
9606,46,0,0,586,456,462,0
9617,45,0,0,583,453,462,0
9629,45,0,0,585,450,462,0
9641,44,0,0,581,454,462,0
9653,24,0,0,532,453,462,0
9664,21,0,0,526,450,462,0
9676,14,0,0,509,457,462,0
9688,22,0,0,527,453,462,0
9699,16,0,0,512,456,463,0
9711,9,0,0,495,450,462,0
9723,15,0,0,511,458,462,0
9735,4,0,0,484,456,463,0
9746,7,0,0,492,455,462,0
9758,0,0,0,457,459,463,0
9770,0,2,0,463,461,463,0
9781,0,0,0,452,457,463,0
9793,0,0,0,446,460,463,0
9805,0,0,0,432,452,463,0
9816,0,4,0,432,462,463,0
9828,0,0,0,384,458,462,0
9840,0,4,0,426,462,463,0
9852,0,0,0,420,460,463,0
9863,0,0,0,409,455,462,0
9875,0,0,0,399,457,462,0
9887,0,0,0,389,460,462,0
9898,0,2,0,380,461,462,0
9910,0,0,0,366,458,462,0
9922,0,0,0,361,455,462,0
9934,0,0,0,343,454,462,0
9945,0,0,0,331,454,462,0
9957,0,0,0,317,454,462,0
9969,0,0,0,298,451,462,0
9980,0,0,0,277,445,462,0
9992,0,0,0,258,446,462,0
10004,0,0,0,254,444,462,0
10015,0,0,0,248,439,463,0
10027,0,0,0,239,440,462,0
10040,0,0,0,252,442,462,0
10052,0,0,0,253,440,463,0
10064,0,0,0,253,443,462,0
10075,0,0,0,252,444,462,0
10087,0,0,0,257,444,462,0
10099,0,0,0,252,445,463,0
10110,0,0,0,266,443,462,0
10122,0,0,0,266,446,463,0
10134,0,0,0,287,447,463,0
10146,0,0,0,306,448,463,0
10157,0,0,0,311,450,463,0
10169,0,0,0,336,449,462,0
10181,0,0,0,332,453,462,0
10192,0,0,0,375,454,462,0
10204,0,0,0,396,459,462,0
10216,0,6,0,394,463,462,0
10227,0,8,0,432,464,462,0
10239,0,2,0,412,461,462,0
10251,0,4,0,422,462,463,0
10263,0,10,0,454,465,462,0
10274,0,10,0,467,465,462,0
10286,0,8,0,472,464,463,0
10298,0,0,0,472,456,462,0
10309,7,4,0,490,462,462,0
10321,0,6,0,472,463,462,0
10333,17,10,0,515,465,462,0
10345,16,12,0,512,466,462,0
10356,26,22,0,538,471,462,0
10368,18,12,0,518,466,462,0
10380,20,0,0,522,457,462,0
10391,43,6,0,579,463,462,0
10403,29,6,0,545,463,462,0
10415,50,24,0,596,472,462,0
10426,37,18,0,564,469,462,0
10438,56,16,0,610,468,462,0
10450,42,29,0,577,474,462,0
10462,53,22,0,604,471,462,0
10473,42,35,0,577,477,462,0
10485,59,31,0,617,475,462,0
10497,45,37,0,584,478,463,0
10508,45,39,0,583,479,462,0
10520,57,53,0,612,486,462,0
10532,38,43,0,567,481,462,0
10544,48,49,0,592,484,462,0
10555,37,45,0,564,482,462,0
10567,43,55,0,578,487,463,0
10579,21,55,0,525,487,463,0
10590,39,78,0,568,498,463,0
10602,20,73,0,524,496,463,0
10614,17,82,0,515,500,463,0
10625,0,92,0,475,505,463,0
10637,0,82,0,469,500,463,0
10649,0,90,0,454,504,463,0
10661,0,98,0,446,508,463,0
10672,0,94,0,424,506,463,0
10684,0,96,0,385,507,463,0
10696,0,100,0,373,512,462,0
10707,0,100,0,388,516,463,0
10719,0,100,0,354,515,463,0
10731,0,98,0,330,508,463,0
10742,0,94,0,311,506,463,0
10754,0,88,0,304,503,463,0
10766,0,78,0,285,498,463,0
10778,0,73,0,275,496,463,0
10789,0,55,0,254,487,462,0
10801,0,43,0,258,481,462,0
10813,0,24,0,233,472,463,0
10824,0,10,0,215,465,462,0
10836,0,0,0,200,457,463,0
10848,0,0,0,176,448,463,0
10860,0,0,0,178,447,462,0
10871,0,0,0,171,443,462,0
10883,0,0,0,157,438,463,0
10895,0,0,0,171,438,463,0
10906,0,0,0,158,437,463,0
10918,0,0,0,149,434,462,0
10930,0,0,0,151,430,462,0
10941,0,0,0,142,426,462,0
10953,0,0,0,146,421,462,0
10965,0,0,0,149,420,463,0
10977,0,0,0,152,416,462,0
10988,0,0,0,158,416,462,0
11000,0,0,0,175,415,462,0
11012,0,0,0,185,411,462,0
11023,0,0,0,197,411,462,0
11035,0,0,0,210,410,463,0
11047,0,0,0,226,405,462,0
11059,0,0,0,243,403,463,0
11070,0,0,0,260,402,462,0
11082,0,0,0,275,401,462,0
11094,0,0,0,291,400,462,0
11105,0,0,0,307,400,462,0
11117,0,0,0,324,401,462,0
11129,0,0,0,337,403,462,0
11140,0,0,0,349,406,462,0
11152,0,0,0,362,409,462,0
11164,0,0,0,374,409,463,0
11176,0,0,0,384,411,463,0
11187,0,0,0,396,411,462,0
11199,0,0,0,405,412,463,0
11211,0,0,0,413,413,462,0
11222,0,0,0,424,415,463,0
11234,0,0,0,433,416,462,0
11246,0,0,0,442,420,462,0
11258,0,0,0,448,423,462,0
11269,0,0,0,456,425,462,0
11281,0,0,0,462,427,462,0
11293,0,0,0,468,428,462,0
11304,1,0,0,476,429,462,0
11316,4,0,0,483,429,462,0
11328,7,0,0,490,432,463,0
11339,7,0,0,492,433,463,0
11351,9,0,0,496,434,462,0
11363,11,0,0,500,436,462,0
11375,12,0,0,504,436,462,0
11386,14,0,0,508,437,462,0
11398,15,0,0,510,439,462,0
11410,16,0,0,512,441,462,0
11421,16,0,0,514,444,462,0
11433,17,0,0,515,444,462,0
11445,18,0,0,517,445,463,0
11456,18,0,0,519,446,462,0
11468,19,0,0,521,447,463,0
11480,20,0,0,522,448,463,0
11492,20,0,0,522,450,462,0
11503,19,0,0,521,451,462,0
11515,20,0,0,522,452,462,0
11527,20,0,0,522,453,462,0
11538,20,0,0,522,454,462,0
11550,20,0,0,522,455,462,0
11562,20,0,0,523,456,462,0
11574,20,0,0,523,457,462,0
11585,20,0,0,522,457,462,0
11597,20,0,0,522,457,462,0
11609,19,0,0,521,458,462,0
11620,19,0,0,521,458,462,0
11632,19,0,0,520,458,462,0
11644,18,0,0,518,458,462,0
11655,18,0,0,517,459,462,0
11667,18,0,0,518,459,462,0
11679,18,0,0,517,458,462,0
11691,17,0,0,516,458,462,0
11702,17,0,0,516,458,462,0
11714,17,0,0,515,459,463,0
11726,17,0,0,515,459,462,0
11737,16,0,0,514,460,462,0
11749,16,0,0,514,460,463,0
11761,16,2,0,514,461,463,0
11773,16,2,0,513,461,462,0
11784,16,4,0,513,462,462,0
11796,15,4,0,511,462,463,0
11808,15,6,0,511,463,462,0
11819,15,8,0,511,464,462,0
11831,15,8,0,511,464,462,0
11843,15,8,0,510,464,462,0
11854,15,8,0,510,464,462,0
11866,14,8,0,509,464,462,0
11878,14,8,0,509,464,462,0
11890,14,10,0,508,465,462,0
11901,14,10,0,507,465,463,0
11913,14,10,0,507,465,463,0
11925,13,8,0,505,464,462,0
11936,12,8,0,504,464,462,0
11948,12,8,0,503,464,462,0
11960,12,10,0,504,465,462,0
11971,13,8,0,505,464,462,0
11983,13,10,0,505,465,462,0
11995,12,10,0,504,465,463,0
12007,11,10,0,502,465,463,0
12018,11,10,0,502,465,463,0
12030,11,12,0,501,466,463,0
12043,11,12,0,500,466,462,0
12055,11,14,0,500,467,463,0
12067,11,14,0,500,467,463,0
12078,10,14,0,498,467,462,0
12090,9,14,0,497,467,462,0
12102,9,16,0,496,468,462,0
12113,9,16,0,495,468,462,0
12125,9,16,0,495,468,462,0
12137,9,16,0,495,468,462,0
12149,9,16,0,495,468,462,0
12160,8,14,0,494,467,462,0
12172,8,14,0,493,467,462,0
12184,7,14,0,492,467,462,0
12195,7,14,0,492,467,462,0
12207,7,16,0,491,468,462,0
12219,7,16,0,490,468,462,0
12231,7,16,0,490,468,462,0
12242,7,14,0,490,467,462,0
12254,7,16,0,490,468,462,0
12266,6,16,0,489,468,462,0
12277,6,14,0,489,467,462,0
12289,6,16,0,489,468,462,0
12301,6,16,0,488,468,463,0
12312,6,16,0,488,468,462,0
12324,6,16,0,489,468,462,0
12336,6,16,0,488,468,462,0
12348,5,16,0,487,468,462,0
12359,5,16,0,487,468,462,0
12371,5,16,0,486,468,462,0
12383,5,16,0,487,468,462,0
12394,6,16,0,488,468,462,0
12406,5,16,0,486,468,463,0
12418,5,16,0,486,468,463,0
12430,5,16,0,486,468,463,0
12441,5,14,0,486,467,462,0
12453,5,14,0,485,467,462,0
12465,5,14,0,485,467,462,0
12476,5,14,0,485,467,462,0
12488,5,12,0,485,466,463,0
12500,5,12,0,485,466,463,0
12511,5,12,0,485,466,462,0
12523,4,12,0,484,466,463,0
12535,4,12,0,483,466,462,0
12547,3,12,0,482,466,462,0
12558,3,12,0,482,466,462,0
12570,3,10,0,2,,,
12,17,5,0,518,462,462,1
25,17,5,0,520,462,462,0
37,18,7,0,522,466,462,0
49,20,10,0,529,470,462,0
60,21,13,0,532,475,462,0
72,23,14,0,537,477,462,0
84,25,16,0,542,481,462,0
95,26,18,0,545,484,463,0
107,25,19,0,544,485,462,0
119,28,22,0,552,490,462,0
130,28,22,0,552,490,463,0
142,29,23,0,556,493,463,0
154,29,23,0,556,492,462,0
166,30,23,0,557,492,462,0
177,30,26,0,559,497,462,0
189,32,25,0,565,496,462,0
201,32,25,0,564,496,462,0
212,33,26,0,568,497,462,0
224,35,26,0,574,497,462,0
236,34,25,0,570,496,462,0
248,38,31,0,581,505,462,0
259,40,31,0,587,505,462,0
271,42,35,0,592,513,462,0
283,44,30,0,600,504,462,0
294,51,36,0,620,514,462,0
306,54,40,0,629,520,462,0
318,60,38,0,648,517,462,0
329,60,40,0,646,520,462,0
341,65,43,0,662,526,462,0
353,69,40,0,672,520,462,0
365,69,43,0,672,525,461,0
376,71,43,0,678,525,462,0
388,74,43,0,689,526,462,0
400,77,43,0,697,525,462,0
411,82,45,0,712,529,462,0
423,81,48,0,708,534,462,0
435,88,49,0,728,536,462,0
446,77,45,0,698,529,462,0
458,88,50,0,730,537,462,0
470,86,49,0,723,536,462,0
482,83,46,0,715,530,462,0
493,81,44,0,708,528,462,0
505,83,45,0,714,529,462,0
517,78,45,0,700,529,462,0
528,72,41,0,681,523,462,0
540,69,38,0,674,518,462,0
552,63,35,0,655,513,462,0
564,65,33,0,662,509,462,0
575,60,31,0,648,506,462,0
587,64,29,0,659,502,462,0
599,65,30,0,662,504,462,0
610,69,29,0,673,502,462,0
622,65,23,0,660,492,462,0
634,71,28,0,679,500,462,0
645,65,21,0,660,489,462,0
657,74,22,0,687,491,462,0
669,67,22,0,666,490,462,0
681,61,20,0,651,487,462,0
692,67,22,0,668,490,462,0
704,65,19,0,661,486,462,0
716,73,18,0,684,484,462,0
727,73,19,0,686,485,462,0
739,62,15,0,653,479,462,0
751,60,17,0,648,483,462,0
763,45,16,0,602,480,462,0
774,46,14,0,606,477,461,0
786,39,10,0,584,470,462,0
798,41,11,0,591,473,462,0
809,34,11,0,571,473,462,0
821,31,9,0,560,469,462,0
833,15,7,0,512,465,462,0
844,13,4,0,506,460,462,0
856,0,1,0,464,455,462,0
868,4,0,0,481,450,462,0
880,0,0,0,457,441,462,0
891,0,0,0,456,435,461,0
903,0,0,0,433,427,462,0
915,0,0,0,424,429,462,0
926,0,0,0,382,418,462,0
938,0,0,0,374,415,462,0
950,0,0,0,353,407,462,0
962,0,0,0,342,401,462,0
973,0,0,0,312,391,462,0
985,0,0,0,289,386,462,0
997,0,0,0,284,375,462,0
1008,0,0,0,275,378,462,0
1020,0,0,0,258,374,462,0
1032,0,0,0,258,374,462,0
1043,0,0,0,251,375,462,0
1055,0,0,0,249,369,462,0
1067,0,0,0,243,362,462,0
1079,0,0,0,249,373,462,0
1090,0,0,0,238,374,462,0
1102,0,0,0,243,374,462,0
1114,0,0,0,247,373,462,0
1125,0,0,0,247,378,462,0
1137,0,0,0,257,387,462,0
1149,0,0,0,257,390,462,0
1160,0,0,0,263,393,462,0
1172,0,0,0,282,398,462,0
1184,0,0,0,289,403,462,0
1196,0,0,0,309,412,462,0
1207,0,0,0,316,415,462,0
1219,0,0,0,313,421,462,0
1231,0,0,0,328,424,463,0
1242,0,0,0,322,429,463,0
1254,0,0,0,341,432,462,0
1266,0,0,0,358,438,462,0
1278,0,0,0,363,439,462,0
1289,0,0,0,354,441,462,0
1301,0,0,0,386,448,462,0
1313,0,0,0,373,446,462,0
1324,0,0,0,404,452,462,0
1336,0,3,0,397,459,462,0
1348,0,2,0,394,458,462,0
1359,0,8,0,445,468,462,0
1371,0,11,0,433,473,462,0
1383,0,16,0,470,480,462,0
1395,0,13,0,432,476,462,0
1406,2,17,0,476,483,462,0
1418,0,16,0,422,481,462,0
1430,3,13,0,477,476,462,0
1441,5,15,0,484,479,462,0
1453,0,11,0,439,472,462,0
1465,12,17,0,505,483,462,0
1477,0,14,0,448,478,462,0
1488,20,20,0,527,487,462,0
1500,20,25,0,528,496,462,0
1512,14,30,0,510,504,462,0
1523,28,32,0,551,507,462,0
1535,39,32,0,583,507,462,0
1547,30,36,0,559,514,462,0
1558,36,38,0,575,518,462,0
1570,53,50,0,627,537,462,0
1582,52,50,0,622,537,462,0
1594,61,52,0,651,541,462,0
1605,57,55,0,637,546,462,0
1617,53,54,0,625,544,462,0
1629,59,62,0,645,558,462,0
1640,60,63,0,647,560,462,0
1652,56,66,0,635,565,462,0
1664,58,68,0,640,567,462,0
1676,46,70,0,605,571,462,0
1687,47,72,0,609,575,462,0
1699,38,73,0,582,576,462,0
1711,35,75,0,573,580,462,0
1722,28,72,0,552,574,462,0
1734,15,72,0,514,574,462,0
1746,4,70,0,482,571,462,0
1757,2,71,0,474,572,462,0
1769,0,72,0,444,574,462,0
1781,0,71,0,411,573,462,0
1793,0,71,0,379,573,462,0
1804,0,68,0,350,567,462,0
1816,0,65,0,307,562,462,0
1828,0,60,0,297,554,462,0
1839,0,57,0,256,549,462,0
1851,0,53,0,246,543,462,0
1863,0,49,0,215,535,462,0
1874,0,44,0,190,527,462,0
1886,0,37,0,159,516,462,0
1898,0,31,0,146,505,462,0
1910,0,25,0,142,495,462,0
1921,0,20,0,124,487,462,0
1933,0,14,0,123,477,462,0
1945,0,7,0,103,465,462,0
1956,0,5,0,117,462,462,0
1968,0,2,0,99,457,462,0
1980,0,0,0,104,452,462,0
1992,0,0,0,89,446,462,0
2003,0,0,0,101,444,462,0
2015,0,0,0,113,444,462,0
2028,0,0,0,118,444,462,0
2040,0,0,0,123,445,462,0
2052,0,0,0,140,442,462,0
2063,0,0,0,148,444,462,0
2075,0,0,0,169,444,462,0
2087,0,0,0,174,443,462,0
2098,0,0,0,198,443,462,0
2110,0,0,0,212,443,462,0
2122,0,0,0,229,438,462,0
2133,0,0,0,250,438,462,0
2145,0,0,0,269,438,462,0
2157,0,0,0,289,440,462,0
2169,0,0,0,311,440,462,0
2180,0,0,0,330,440,462,0
2192,0,0,0,342,440,462,0
2204,0,0,0,359,438,462,0
2215,0,0,0,372,438,462,0
2227,0,0,0,388,435,462,0
2239,0,0,0,399,436,462,0
2251,0,0,0,410,433,462,0
2262,0,0,0,416,433,462,0
2274,0,0,0,430,432,462,0
2286,0,0,0,440,432,462,0
2297,0,0,0,451,433,462,0
2309,0,0,0,461,432,461,0
2321,0,0,0,468,432,462,0
2332,3,0,0,478,433,461,0
2344,6,0,0,486,434,462,0
2356,8,0,0,493,435,461,0
2368,9,0,0,495,436,461,0
2379,11,0,0,501,436,461,0
2391,13,0,0,506,436,462,0
2403,15,0,0,513,435,462,0
2414,17,0,0,519,434,462,0
2426,18,0,0,521,434,461,0
2438,19,0,0,524,435,462,0
2449,19,0,0,524,436,462,0
2461,21,0,0,530,435,462,0
2473,21,0,0,531,436,462,0
2485,22,0,0,533,436,462,0
2496,22,0,0,534,436,462,0
2508,22,0,0,535,436,462,0
2520,23,0,0,536,436,462,0
2531,23,0,0,536,436,462,0
2543,23,0,0,537,436,462,0
2555,23,0,0,538,436,462,0
2567,23,0,0,538,436,462,0
2578,23,0,0,538,436,461,0
2590,24,0,0,539,437,462,0
2602,24,0,0,539,437,462,0
2613,23,0,0,537,438,462,0
2625,23,0,0,536,439,462,0
2637,22,0,0,535,439,462,0
2648,22,0,0,534,440,462,0
2660,22,0,0,534,440,462,0
2672,22,0,0,534,440,462,0
2684,22,0,0,533,440,462,0
2695,22,0,0,533,441,462,0
2707,21,0,0,531,440,462,0
2719,21,0,0,532,441,462,0
2730,21,0,0,530,441,462,0
2742,20,0,0,529,441,462,0
2754,20,0,0,528,442,462,0
2766,20,0,0,527,444,462,0
2777,19,0,0,526,443,462,0
2789,18,0,0,523,443,462,0
2801,18,0,0,522,441,462,0
2812,18,0,0,521,441,462,0
2824,17,0,0,520,441,462,0
2836,16,0,0,517,441,462,0
2847,16,0,0,517,440,462,0
2859,17,0,0,518,440,462,0
2871,16,0,0,515,437,462,0
2883,16,0,0,516,435,462,0
2894,15,0,0,512,434,462,0
2906,16,0,0,517,432,462,0
2918,17,0,0,518,435,462,0
2929,16,0,0,517,429,462,0
2941,17,0,0,519,423,462,0
2953,17,0,0,520,420,462,0
2965,18,0,0,523,434,462,0
2976,22,0,0,533,440,462,0
2988,22,0,0,535,445,462,0
3000,23,0,0,537,445,462,0
3011,24,0,0,540,447,462,0
3023,25,1,0,544,455,462,0
3035,27,5,0,549,462,462,0
3046,28,8,0,553,468,462,0
3058,30,9,0,559,469,462,0
3070,31,10,0,561,471,462,0
3082,31,13,0,562,476,462,0
3093,32,15,0,565,479,462,0
3105,35,14,0,573,477,462,0
3117,35,17,0,574,483,461,0
3128,40,19,0,587,486,462,0
3140,41,23,0,590,493,462,0
3152,42,26,0,593,497,462,0
3164,49,25,0,613,496,462,0
3175,51,28,0,621,500,462,0
3187,58,29,0,642,502,462,0
3199,58,29,0,642,502,462,0
3210,68,28,0,670,501,462,0
3222,71,31,0,678,505,462,0
3234,64,25,0,659,495,462,0
3245,71,23,0,679,492,462,0
3257,71,24,0,679,494,462,0
3269,76,23,0,693,493,462,0
3281,69,21,0,672,489,462,0
3292,80,24,0,705,494,462,0
3304,79,23,0,704,492,462,0
3316,81,26,0,708,498,462,0
3327,72,17,0,683,482,462,0
3339,83,24,0,716,494,462,0
3351,79,19,0,702,485,462,0
3363,74,19,0,687,485,462,0
3374,64,14,0,657,478,462,0
3386,78,14,0,700,478,462,0
3398,72,13,0,683,476,462,0
3409,70,10,0,675,470,462,0
3421,79,15,0,703,479,462,0
3433,77,11,0,698,472,462,0
3444,67,10,0,668,470,462,0
3456,71,6,0,680,464,462,0
3468,62,1,0,653,456,462,0
3480,73,5,0,686,462,462,0
3491,65,5,0,662,462,462,0
3503,70,0,0,676,451,462,0
3515,69,2,0,672,458,462,0
3526,65,0,0,661,454,462,0
3538,64,0,0,658,452,462,0
3550,55,0,0,633,445,462,0
3561,48,0,0,611,436,462,0
3573,46,0,0,606,430,463,0
3585,56,0,0,636,433,462,0
3597,47,0,0,609,432,463,0
3608,55,0,0,631,432,462,0
3620,50,0,0,618,430,462,0
3632,45,0,0,601,424,462,0
3643,31,0,0,560,428,462,0
3655,22,0,0,534,422,462,0
3667,3,0,0,477,410,462,0
3679,11,0,0,502,414,462,0
3690,3,0,0,477,413,462,0
3702,5,0,0,483,411,462,0
3714,0,0,0,454,408,462,0
3725,0,0,0,448,406,462,0
3737,0,0,0,419,401,461,0
3749,0,0,0,403,398,462,0
3760,0,0,0,362,389,462,0
3772,0,0,0,352,382,462,0
3784,0,0,0,330,376,462,0
3796,0,0,0,300,363,462,0
3807,0,0,0,278,362,462,0
3819,0,0,0,240,352,462,0
3831,0,0,0,227,340,462,0
3842,0,0,0,206,335,462,0
3854,0,0,0,209,325,462,0
3866,0,0,0,199,327,462,0
3878,0,0,0,190,318,462,0
3889,0,0,0,188,316,462,0
3901,0,0,0,186,317,462,0
3913,0,0,0,183,310,462,0
3924,0,0,0,188,305,462,0
3936,0,0,0,189,314,462,0
3948,0,0,0,199,311,462,0
3959,0,0,0,189,308,462,0
3971,0,0,0,208,308,462,0
3983,0,0,0,214,302,462,0
3995,0,0,0,218,310,462,0
4006,0,0,0,212,313,462,0
4018,0,0,0,232,308,462,0
4031,0,0,0,243,317,462,0
4043,0,0,0,243,315,462,0
4054,0,0,0,253,329,462,0
4066,0,0,0,255,332,462,0
4078,0,0,0,269,338,462,0
4090,0,0,0,270,344,462,0
4101,0,0,0,273,350,462,0
4113,0,0,0,282,354,462,0
4125,0,0,0,280,359,462,0
4136,0,0,0,278,366,462,0
4148,0,0,0,287,370,462,0
4160,0,0,0,311,383,462,0
4171,0,0,0,300,381,462,0
4183,0,0,0,334,387,462,0
4195,0,0,0,364,401,462,0
4207,0,0,0,381,410,462,0
4218,0,0,0,395,413,462,0
4230,0,0,0,397,419,462,0
4242,0,0,0,454,432,462,0
4253,7,0,0,490,449,462,0
4265,2,7,0,476,465,462,0
4277,24,12,0,541,474,462,0
4289,34,19,0,570,486,462,0
4300,38,29,0,582,503,462,0
4312,49,38,0,613,518,462,0
4324,53,46,0,626,530,462,0
4335,54,54,0,629,545,462,0
4347,63,58,0,655,551,462,0
4359,69,63,0,672,559,462,0
4370,60,72,0,648,574,462,0
4382,77,76,0,696,581,462,0
4394,69,75,0,672,580,462,0
4406,65,80,0,661,587,462,0
4417,61,88,0,649,601,462,0
4429,65,92,0,660,608,462,0
4441,45,96,0,603,614,462,0
4452,49,92,0,615,607,462,0
4464,40,92,0,588,607,462,0
4476,42,97,0,593,616,462,0
4488,36,99,0,575,619,462,0
4499,30,100,0,559,622,462,0
4511,20,100,0,529,623,462,0
4523,9,99,0,497,620,461,0
4534,0,99,0,467,619,462,0
4546,0,97,0,434,616,462,0
4558,0,96,0,404,614,462,0
4569,0,92,0,379,608,462,0
4581,0,90,0,354,604,462,0
4593,0,85,0,300,596,462,0
4605,0,83,0,293,592,462,0
4616,0,78,0,268,585,462,0
4628,0,73,0,255,576,462,0
4640,0,66,0,207,565,462,0
4651,0,60,0,206,554,462,0
4663,0,54,0,184,544,462,0
4675,0,46,0,155,530,462,0
4687,0,40,0,144,520,462,0
4698,0,32,0,105,507,462,0
4710,0,27,0,120,499,462,0
4722,0,21,0,97,489,462,0
4733,0,17,0,88,482,462,0
4745,0,13,0,82,475,462,0
4757,0,11,0,86,472,462,0
4768,0,9,0,93,469,462,0
4780,0,7,0,100,466,462,0
4792,0,6,0,105,464,462,0
4804,0,4,0,122,461,462,0
4815,0,4,0,121,461,462,0
4827,0,2,0,148,458,462,0
4839,0,2,0,162,457,462,0
4850,0,1,0,179,455,462,0
4862,0,0,0,203,454,462,0
4874,0,0,0,220,452,462,0
4885,0,0,0,243,451,462,0
4897,0,0,0,263,451,462,0
4909,0,0,0,281,448,462,0
4921,0,0,0,300,447,462,0
4932,0,0,0,317,447,462,0
4944,0,0,0,331,445,462,0
4956,0,0,0,348,444,462,0
4967,0,0,0,362,444,462,0
4979,0,0,0,374,445,462,0
4991,0,0,0,387,445,462,0
5003,0,0,0,400,445,462,0
5014,0,0,0,412,448,462,0
5026,0,0,0,422,446,462,0
5038,0,0,0,430,448,462,0
5049,0,0,0,440,448,462,0
5061,0,0,0,449,447,462,0
5073,0,0,0,457,447,462,0
5084,0,0,0,463,447,462,0
5096,0,0,0,467,449,462,0
5108,1,0,0,473,450,462,0
5120,3,0,0,479,450,462,0
5131,5,0,0,484,452,462,0
5143,7,0,0,490,453,461,0
5155,9,0,0,495,454,462,0
5166,11,1,0,501,456,462,0
5178,12,2,0,505,458,462,0
5190,14,2,0,510,458,462,0
5202,16,4,0,515,460,462,0
5213,17,3,0,518,459,462,0
5225,18,4,0,521,460,462,0
5237,18,5,0,523,462,462,0
5248,20,5,0,527,463,462,0
5260,20,7,0,529,465,462,0
5272,20,8,0,529,467,462,0
5283,21,8,0,532,468,462,0
5295,22,8,0,534,468,462,0
5307,22,10,0,534,471,462,0
5319,23,11,0,536,473,462,0
5330,23,11,0,537,473,462,0
5342,23,13,0,538,476,462,0
5354,24,14,0,539,477,462,0
5365,24,14,0,539,477,462,0
5377,23,14,0,538,478,462,0
5389,24,15,0,540,479,462,0
5400,24,16,0,540,480,462,0
5412,24,16,0,540,481,462,0
5424,24,16,0,540,481,462,0
5436,24,17,0,540,483,462,0
5447,24,17,0,539,483,462,0
5459,23,18,0,537,484,462,0
5471,23,19,0,537,485,462,0
5482,23,19,0,537,485,462,0
5494,23,19,0,537,486,462,0
5506,23,19,0,536,486,462,0
5518,22,19,0,535,486,462,0
5529,22,20,0,534,488,462,0
5541,20,21,0,529,489,462,0
5553,21,20,0,531,487,462,0
5564,21,20,0,532,488,462,0
5576,21,21,0,532,489,462,0
5588,22,21,0,533,489,462,0
5599,20,22,0,529,490,462,0
5611,21,22,0,530,490,462,0
5623,21,20,0,532,487,462,0
5635,21,19,0,531,485,462,0
5646,22,16,0,534,480,462,0
5658,23,16,0,537,480,462,0
5670,24,18,0,541,484,462,0
5681,26,21,0,547,489,462,0
5693,28,25,0,552,495,462,0
5705,29,27,0,556,499,462,0
5717,30,28,0,559,501,462,0
5728,31,31,0,561,505,462,0
5740,33,31,0,567,505,462,0
5752,33,32,0,568,508,462,0
5763,35,36,0,574,514,462,0
5775,36,35,0,575,513,462,0
5787,36,38,0,576,517,461,0
5798,39,40,0,583,520,462,0
5810,38,43,0,581,525,462,0
5822,40,40,0,587,520,462,0
5834,41,43,0,591,525,462,0
5845,44,43,0,600,525,462,0
5857,42,43,0,594,525,462,0
5869,47,45,0,608,529,462,0
5880,51,44,0,619,527,462,0
5892,50,43,0,618,525,462,0
5904,53,47,0,626,533,462,0
5916,59,47,0,644,533,462,0
5927,63,47,0,654,533,462,0
5939,64,47,0,657,533,462,0
5951,65,49,0,660,535,462,0
5962,72,48,0,682,534,462,0
5974,77,49,0,697,535,462,0
5986,77,47,0,697,533,462,0
5997,79,47,0,702,532,462,0
6009,80,45,0,705,529,462,0
6021,83,44,0,714,527,462,0
6034,81,42,0,708,524,462,0
6046,89,44,0,732,528,462,0
6058,79,40,0,704,521,462,0
6069,90,40,0,734,521,462,0
6081,92,41,0,742,522,462,0
6093,92,37,0,741,515,462,0
6104,90,35,0,734,513,462,0
6116,91,34,0,739,511,462,0
6128,88,34,0,729,510,462,0
6139,90,31,0,735,506,462,0
6151,85,29,0,722,503,462,0
6163,94,27,0,747,499,461,0
6175,87,23,0,727,492,462,0
6186,100,25,0,772,495,461,0
6198,97,23,0,756,493,462,0
6210,100,23,0,781,493,462,0
6221,95,22,0,750,491,462,0
6233,100,19,0,766,485,462,0
6245,94,18,0,746,484,462,0
6257,90,17,0,735,482,462,0
6268,70,13,0,676,475,462,0
6280,72,14,0,682,477,462,0
6292,61,8,0,650,468,462,0
6303,60,4,0,648,460,462,0
6315,51,4,0,621,460,462,0
6327,46,4,0,605,460,462,0
6338,43,4,0,597,461,462,0
6350,34,1,0,571,455,462,0
6362,26,0,0,545,446,462,0
6374,18,0,0,521,435,462,0
6385,8,0,0,494,418,462,0
6397,0,0,0,464,403,462,0
6409,0,0,0,439,382,462,0
6420,0,0,0,419,374,462,0
6432,0,0,0,385,356,462,0
6444,0,0,0,352,339,462,0
6455,0,0,0,311,326,462,0
6467,0,0,0,297,307,462,0
6479,0,0,0,267,292,462,0
6491,0,0,0,274,279,462,0
6502,0,0,0,267,266,462,0
6514,0,0,0,261,249,462,0
6526,0,0,0,253,233,462,0
6537,0,0,0,254,218,462,0
6549,0,0,0,255,206,462,0
6561,0,0,0,256,198,462,0
6573,0,0,0,248,186,462,0
6584,0,0,0,246,185,462,0
6596,0,0,0,245,191,462,0
6608,0,0,0,238,199,462,0
6619,0,0,0,229,201,462,0
6631,0,0,0,228,208,462,0
6643,0,0,0,221,218,462,0
6654,0,0,0,226,233,462,0
6666,0,0,0,231,248,462,0
6678,0,0,0,226,258,462,0
6690,0,0,0,230,267,462,0
6701,0,0,0,229,283,462,0
6713,0,0,0,251,296,462,0
6725,0,0,0,268,318,462,0
6736,0,0,0,283,332,462,0
6748,0,0,0,287,349,462,0
6760,0,0,0,280,355,462,0
6772,0,0,0,292,365,462,0
6783,0,0,0,289,380,462,0
6795,0,0,0,296,391,462,0
6807,0,0,0,324,396,462,0
6818,0,0,0,366,412,462,0
6830,0,0,0,384,428,462,0
6842,0,0,0,403,440,462,0
6853,0,4,0,433,461,462,0
6865,0,1,0,384,456,462,0
6877,0,7,0,461,466,462,0
6889,5,16,0,484,480,462,0
6900,16,21,0,516,489,462,0
6912,10,27,0,500,499,462,0
6924,17,38,0,518,517,462,0
6935,31,48,0,562,534,462,0
6947,41,64,0,590,561,462,0
6959,48,70,0,611,571,462,0
6970,57,70,0,638,571,462,0
6982,55,77,0,633,582,462,0
6994,66,88,0,665,601,462,0
7006,69,95,0,674,612,462,0
7017,72,100,0,681,624,462,0
7029,67,100,0,666,630,462,0
7041,82,100,0,713,647,462,0
7052,65,100,0,661,648,462,0
7064,73,100,0,685,652,462,0
7076,66,100,0,664,655,462,0
7088,64,100,0,659,657,462,0
7099,57,100,0,639,662,462,0
7111,48,100,0,612,660,462,0
7123,44,100,0,600,661,462,0
7134,40,100,0,588,657,462,0
7146,26,100,0,547,654,462,0
7158,28,100,0,551,648,462,0
7169,13,100,0,506,645,462,0
7181,7,100,0,490,638,462,0
7193,0,100,0,445,637,462,0
7205,0,100,0,419,628,462,0
7216,0,100,0,405,624,462,0
7228,0,97,0,384,616,462,0
7240,0,92,0,351,608,462,0
7251,0,89,0,313,602,462,0
7263,0,83,0,303,592,462,0
7275,0,77,0,267,583,462,0
7287,0,71,0,257,572,462,0
7298,0,64,0,247,561,462,0
7310,0,57,0,217,550,462,0
7322,0,49,0,182,535,462,0
7333,0,43,0,175,525,462,0
7345,0,35,0,170,513,462,0
7357,0,28,0,139,500,462,0
7368,0,22,0,140,490,462,0
7380,0,16,0,108,480,462,0
7392,0,11,0,121,473,462,0
7404,0,7,0,109,466,462,0
7415,0,5,0,98,462,462,0
7427,0,1,0,112,456,461,0
7439,0,0,0,120,452,462,0
7450,0,0,0,120,450,462,0
7462,0,0,0,132,446,462,0
7474,0,0,0,142,442,462,0
7486,0,0,0,156,438,462,0
7497,0,0,0,168,437,462,0
7509,0,0,0,184,433,462,0
7521,0,0,0,204,432,462,0
7532,0,0,0,225,428,462,0
7544,0,0,0,238,428,462,0
7556,0,0,0,262,425,462,0
7567,0,0,0,283,421,462,0
7579,0,0,0,297,421,462,0
7591,0,0,0,315,419,462,0
7603,0,0,0,331,419,462,0
7614,0,0,0,344,420,462,0
7626,0,0,0,359,423,462,0
7638,0,0,0,372,424,462,0
7649,0,0,0,384,427,462,0
7661,0,0,0,395,430,462,0
7673,0,0,0,410,432,462,0
7684,0,0,0,416,436,462,0
7696,0,0,0,430,435,462,0
7708,0,0,0,439,436,462,0
7720,0,0,0,445,438,462,0
7731,0,0,0,454,439,462,0
7743,0,0,0,460,439,462,0
7755,0,0,0,466,440,462,0
7766,1,0,0,472,440,462,0
7778,3,0,0,477,442,462,0
7790,4,0,0,482,442,462,0
7802,6,0,0,488,443,462,0
7813,6,0,0,487,443,462,0
7825,9,0,0,496,444,462,0
7837,11,0,0,501,444,461,0
7848,11,0,0,503,443,462,0
7860,13,0,0,507,444,462,0
7872,14,0,0,510,444,461,0
7883,14,0,0,511,443,462,0
7895,15,0,0,512,444,462,0
7907,15,0,0,512,445,462,0
7919,15,0,0,513,445,462,0
7930,15,0,0,514,446,462,0
7942,16,0,0,515,445,461,0
7954,16,0,0,515,445,462,0
7965,16,0,0,515,446,462,0
7977,16,0,0,515,446,462,0
7989,16,0,0,516,446,462,0
8001,16,0,0,517,445,462,0
8012,16,0,0,517,444,462,0
8024,17,0,0,518,444,462,0
8037,16,0,0,516,443,462,0
8049,16,0,0,516,445,462,0
8060,16,0,0,517,445,462,0
8072,16,0,0,517,445,462,0
8084,15,0,0,514,444,462,0
8095,15,0,0,514,444,462,0
8107,15,0,0,513,445,462,0
8119,15,0,0,514,445,462,0
8131,15,0,0,514,445,462,0
8142,16,0,0,515,444,462,0
8154,16,0,0,515,444,462,0
8166,15,0,0,514,444,462,0
8177,15,0,0,512,444,462,0
8189,15,0,0,512,443,462,0
8201,13,0,0,506,440,462,0
8213,12,0,0,505,441,462,0
8224,11,0,0,503,438,462,0
8236,11,0,0,502,438,462,0
8248,9,0,0,497,438,462,0
8259,11,0,0,502,438,462,0
8271,12,0,0,504,440,462,0
8283,13,0,0,507,440,462,0
8294,14,0,0,509,443,462,0
8306,15,0,0,512,443,462,0
8318,15,0,0,514,451,462,0
8330,17,0,0,520,453,462,0
8341,20,2,0,528,457,462,0
8353,19,1,0,526,456,462,0
8365,23,6,0,536,464,462,0
8376,23,8,0,536,468,462,0
8388,26,12,0,545,474,462,0
8400,27,14,0,549,477,462,0
8412,26,15,0,547,479,462,0
8423,28,15,0,552,479,462,0
8435,29,16,0,555,480,462,0
8447,31,19,0,562,485,462,0
8458,32,18,0,565,484,462,0
8470,32,20,0,564,488,462,0
8482,35,20,0,572,487,462,0
8493,33,19,0,567,485,462,0
8505,36,21,0,576,489,462,0
8517,37,22,0,578,490,462,0
8529,39,22,0,585,490,461,0
8540,39,23,0,585,492,462,0
8552,42,23,0,593,493,462,0
8564,38,20,0,582,487,462,0
8575,43,22,0,597,490,461,0
8587,45,20,0,602,487,462,0
8599,49,21,0,614,489,462,0
8611,49,21,0,614,489,462,0
8622,49,22,0,615,490,462,0
8634,60,26,0,647,497,462,0
8646,62,25,0,652,495,462,0
8657,58,25,0,641,495,462,0
8669,57,23,0,639,493,462,0
8681,71,28,0,679,501,462,0
8692,70,29,0,675,502,462,0
8704,71,22,0,678,491,462,0
8716,75,24,0,692,494,462,0
8728,80,30,0,705,504,462,0
8739,76,28,0,693,501,462,0
8751,72,26,0,681,497,462,0
8763,76,25,0,694,496,462,0
8774,71,17,0,680,483,462,0
8786,72,19,0,681,485,462,0
8798,68,17,0,670,482,462,0
8809,60,14,0,648,478,462,0
8821,69,12,0,672,474,462,0
8833,69,12,0,674,474,462,0
8845,74,16,0,689,480,462,0
8856,69,13,0,672,476,461,0
8868,67,7,0,666,466,462,0
8880,54,6,0,628,464,462,0
8891,59,2,0,644,458,462,0
8903,54,7,0,628,465,462,0
8915,54,4,0,629,460,462,0
8927,48,4,0,611,460,462,0
8938,51,2,0,620,457,462,0
8950,40,4,0,587,461,462,0
8962,39,1,0,584,455,462,0
8973,26,1,0,545,456,462,0
8985,34,4,0,570,461,462,0
8997,28,4,0,551,461,462,0
9008,31,2,0,562,457,462,0
9020,30,2,0,557,457,462,0
9032,16,0,0,516,452,462,0
9044,17,0,0,518,445,462,0
9055,10,0,0,500,440,462,0
9067,1,0,0,473,435,462,0
9079,0,0,0,461,440,462,0
9090,0,0,0,434,419,462,0
9102,0,0,0,408,416,462,0
9114,0,0,0,382,410,462,0
9126,0,0,0,350,392,462,0
9137,0,0,0,305,371,462,0
9149,0,0,0,309,366,462,0
9161,0,0,0,282,348,462,0
9172,0,0,0,279,338,463,0
9184,0,0,0,280,327,462,0
9196,0,0,0,270,312,462,0
9207,0,0,0,263,304,462,0
9219,0,0,0,262,293,462,0
9231,0,0,0,272,286,462,0
9243,0,0,0,265,279,462,0
9254,0,0,0,273,279,462,0
9266,0,0,0,268,276,462,0
9278,0,0,0,263,275,462,0
9289,0,0,0,253,277,462,0
9301,0,0,0,258,275,462,0
9313,0,0,0,258,285,462,0
9325,0,0,0,259,292,462,0
9336,0,0,0,249,300,462,0
9348,0,0,0,252,307,462,0
9360,0,0,0,242,317,462,0
9371,0,0,0,271,328,462,0
9383,0,0,0,274,350,462,0
9395,0,0,0,276,361,462,0
9406,0,0,0,292,370,462,0
9418,0,0,0,269,370,462,0
9430,0,0,0,338,396,462,0
9442,0,0,0,342,417,462,0
9453,0,0,0,354,432,462,0
9465,0,0,0,336,436,462,0
9477,0,0,0,379,451,462,0
9488,0,8,0,444,468,462,0
9500,0,20,0,452,488,462,0
9512,6,29,0,486,503,462,0
9523,13,40,0,508,521,462,0
9535,13,47,0,506,533,462,0
9547,26,54,0,547,545,462,0
9559,23,61,0,537,556,462,0
9570,38,66,0,582,565,462,0
9582,32,80,0,565,588,462,0
9594,36,87,0,577,599,462,0
9605,44,93,0,598,610,462,0
9617,40,95,0,587,612,462,0
9629,56,94,0,634,611,462,0
9641,42,99,0,592,620,462,0
9652,54,100,0,629,632,462,0
9664,53,100,0,627,638,462,0
9676,54,100,0,628,641,462,0
9687,54,100,0,629,646,462,0
9699,43,100,0,595,639,462,0
9711,46,100,0,605,638,462,0
9722,34,100,0,569,632,462,0
9734,37,100,0,578,632,462,0
9746,29,100,0,554,632,462,0
9758,17,100,0,518,629,462,0
9769,22,100,0,534,630,462,0
9781,15,98,0,513,617,462,0
9793,7,96,0,491,614,462,0
9804,0,92,0,456,607,462,0
9816,1,92,0,471,608,462,0
9828,0,90,0,452,604,462,0
9840,0,87,0,412,599,462,0
9851,0,83,0,392,593,462,0
9863,0,78,0,378,584,462,0
9875,0,75,0,358,579,462,0
9886,0,69,0,353,569,462,0
9898,0,63,0,322,559,462,0
9910,0,57,0,301,550,462,0
9921,0,50,0,272,537,462,0
9933,0,44,0,270,528,462,0
9945,0,38,0,248,517,462,0
9957,0,34,0,229,510,462,0
9968,0,26,0,218,498,462,0
9980,0,21,0,209,489,462,0
9992,0,15,0,170,479,462,0
10003,0,11,0,180,473,462,0
10015,0,8,0,162,468,462,0
10027,0,3,0,158,459,462,0
10040,0,2,0,154,457,461,0
10052,0,0,0,149,453,462,0
10063,0,0,0,155,448,462,0
10075,0,0,0,171,447,462,0
10087,0,0,0,172,444,462,0
10099,0,0,0,177,443,462,0
10110,0,0,0,172,441,462,0
10122,0,0,0,187,438,462,0
10134,0,0,0,197,438,462,0
10145,0,0,0,207,437,462,0
10157,0,0,0,221,436,462,0
10169,0,0,0,236,436,462,0
10180,0,0,0,250,433,462,0
10192,0,0,0,263,434,462,0
10204,0,0,0,277,432,462,0
10216,0,0,0,293,431,462,0
10227,0,0,0,308,428,462,0
10239,0,0,0,320,427,462,0
10251,0,0,0,331,428,462,0
10262,0,0,0,347,424,462,0
10274,0,0,0,356,424,462,0
10286,0,0,0,368,423,462,0
10298,0,0,0,380,423,462,0
10309,0,0,0,395,423,462,0
10321,0,0,0,406,425,462,0
10333,0,0,0,416,425,462,0
10344,0,0,0,427,427,462,0
10356,0,0,0,436,429,462,0
10368,0,0,0,447,429,462,0
10379,0,0,0,454,430,462,0
10391,0,0,0,465,432,461,0
10403,1,0,0,473,432,462,0
10415,3,0,0,477,434,462,0
10426,5,0,0,483,436,462,0
10438,7,0,0,489,438,462,0
10450,8,0,0,494,442,462,0
10461,9,0,0,497,445,462,0
10473,10,0,0,500,446,462,0
10485,11,0,0,503,446,462,0
10497,13,0,0,508,445,462,0
10508,15,0,0,512,446,462,0
10520,16,0,0,516,447,462,0
10532,16,0,0,516,448,462,0
10543,17,0,0,519,450,462,0
10555,18,0,0,521,450,462,0
10567,19,0,0,524,452,462,0
10578,19,0,0,524,452,462,0
10590,19,0,0,526,452,462,0
10602,19,0,0,526,453,462,0
10614,19,0,0,526,453,462,0
10625,19,0,0,526,454,462,0
10637,20,1,0,527,455,462,0
10649,19,1,0,525,456,462,0
10660,19,1,0,526,455,462,0
10672,19,1,0,526,456,462,0
10684,20,1,0,527,456,462,0
10695,19,2,0,526,457,462,0
10707,19,2,0,525,458,462,0
10719,19,2,0,525,458,462,0
10731,19,3,0,524,459,462,0
10742,18,3,0,522,459,462,0
10754,18,3,0,522,459,462,0
10766,18,4,0,522,460,462,0
10777,18,4,0,522,461,462,0
10789,18,5,0,522,463,462,0
10801,18,4,0,523,460,462,0
10813,18,3,0,522,459,462,0
10824,18,4,0,521,461,462,0
10836,18,2,0,522,458,462,0
10848,18,2,0,522,458,462,0
10859,18,1,0,522,456,462,0
10871,18,2,0,522,457,462,0
10883,18,2,0,521,458,462,0
10894,18,4,0,521,461,462,0
10906,18,5,0,521,463,462,0
10918,18,7,0,523,465,462,0
10930,18,8,0,522,467,462,0
10941,20,9,0,527,469,462,0
10953,21,9,0,530,469,462,0
10965,21,10,0,531,470,462,0
10976,21,11,0,532,472,462,0
10988,21,13,0,532,475,462,0
11000,22,11,0,533,472,462,0
11012,22,13,0,534,476,462,0
11023,23,13,0,537,476,462,0
11035,23,16,0,537,480,462,0
11047,24,14,0,540,478,462,0
11058,23,14,0,537,477,462,0
11070,25,16,0,543,480,462,0
11082,23,16,0,537,481,462,0
11093,25,19,0,542,485,462,0
11105,26,17,0,547,482,462,0
11117,26,19,0,547,486,462,0
11129,26,19,0,546,486,462,0
11140,27,18,0,548,484,462,0
11152,29,20,0,556,488,462,0
11164,30,22,0,558,490,462,0
11175,28,21,0,552,489,462,0
11187,30,22,0,559,491,462,0
11199,29,20,0,556,488,462,0
11211,32,21,0,565,489,462,0
11222,33,20,0,567,488,462,0
11234,33,20,0,566,488,462,0
11246,28,19,0,552,485,462,0
11257,31,17,0,562,483,462,0
11269,35,18,0,574,484,462,0
11281,37,18,0,578,484,462,0
11292,35,17,0,574,483,462,0
11304,39,18,0,585,484,462,0
11316,41,18,0,591,484,462,0
11328,34,14,0,569,477,462,0
11339,41,20,0,591,487,462,0
11351,44,18,0,599,484,462,0
11363,52,22,0,624,490,462,0
11374,53,22,0,625,491,462,0
11386,61,25,0,651,496,462,0
11398,62,25,0,652,495,462,0
11410,68,27,0,671,499,462,0
11421,66,26,0,665,498,462,0
11433,71,23,0,679,492,462,0
11445,71,21,0,680,489,462,0
11456,79,25,0,704,496,462,0
11468,76,24,0,694,494,462,0
11480,71,20,0,678,488,462,0
11491,67,17,0,668,482,462,0
11503,70,18,0,676,484,462,0
11515,75,16,0,692,481,462,0
11527,81,17,0,708,482,462,0
11538,81,15,0,710,479,462,0
11550,66,11,0,664,473,462,0
11562,82,15,0,711,479,462,0
11573,79,11,0,703,473,462,0
11585,81,10,0,710,471,462,0
11597,80,11,0,707,473,462,0
11609,73,8,0,685,468,462,0
11620,59,6,0,643,464,462,0
11632,55,2,0,633,458,462,0
11644,52,0,0,622,452,462,0
11655,40,0,0,588,446,462,0
11667,39,0,0,585,443,462,0
11679,21,0,0,530,441,462,0
11690,30,0,0,557,442,461,0
11702,24,0,0,540,434,461,0
11714,18,0,0,521,427,462,0
11726,12,0,0,504,422,462,0
11737,4,0,0,482,416,462,0
11749,0,0,0,460,414,462,0
11761,0,0,0,422,397,462,0
11772,0,0,0,415,387,462,0
11784,0,0,0,369,378,462,0
11796,0,0,0,381,356,462,0
11807,0,0,0,373,353,462,0
11819,0,0,0,356,341,462,0
11831,0,0,0,335,329,462,0
11843,0,0,0,321,316,462,0
11854,0,0,0,292,303,462,0
11866,0,0,0,276,290,462,0
11878,0,0,0,280,286,462,0
11889,0,0,0,269,279,462,0
11901,0,0,0,283,277,462,0
11913,0,0,0,289,277,462,0
11925,0,0,0,284,278,462,0
11936,0,0,0,280,275,462,0
11948,0,0,0,281,283,462,0
11960,0,0,0,286,288,462,0
11971,0,0,0,280,295,462,0
11983,0,0,0,282,300,462,0
11995,0,0,0,273,307,462,0
12006,0,0,0,265,321,462,0
12018,0,0,0,254,329,462,0
12030,0,0,0,286,341,462,0
12043,0,0,0,287,352,462,0
12055,0,0,0,271,365,462,0
12066,0,0,0,260,372,462,0
12078,0,0,0,288,379,462,0
12090,0,0,0,293,391,462,0
12101,0,0,0,312,401,462,0
12113,0,0,0,353,422,462,0
12125,0,0,0,352,436,462,0
12137,0,0,0,381,446,462,0
12148,0,3,0,379,459,462,0
12160,0,11,0,424,472,462,0
12172,0,18,0,418,484,462,0
12183,0,25,0,432,495,462,0
12195,0,32,0,452,508,462,0
12207,18,38,0,522,518,462,0
12218,24,46,0,540,530,462,0
12230,20,52,0,528,541,462,0
12242,41,62,0,590,558,462,0
12254,25,65,0,542,563,462,0
12265,51,70,0,620,571,462,0
12277,49,71,0,613,572,462,0
12289,48,75,0,612,580,462,0
12300,58,82,0,640,591,462,0
12312,58,83,0,641,592,462,0
12324,58,90,0,642,605,462,0
12336,60,95,0,646,613,462,0
12347,53,94,0,627,611,462,0
12359,45,86,0,601,597,462,0
12371,56,92,0,636,607,462,0
12382,35,96,0,572,614,462,0
12394,48,95,0,612,612,462,0
12406,39,96,0,583,615,462,0
12417,33,98,0,568,618,462,0
12429,16,95,0,517,612,462,0
12441,19,90,0,525,604,462,0
12453,4,89,0,480,602,462,0
12464,0,85,0,470,596,462,0
12476,0,83,0,435,592,462,0
12488,0,80,0,407,587,462,0
12499,0,78,0,405,585,462,0
12511,0,74,0,359,577,462,0
12523,0,69,0,341,569,462,0
12535,0,62,0,299,558,462,0
12546,0,58,0,281,551,462,0
12558,0,50,0,262,538,462,0
12570,0,44,0,247,528,462,0
12581,0,38,0,220,517,462,0
12593,0,29,0,193,503,462,0
12605,0,22,0,173,490,462,0
12616,0,17,0,167,482,462,0
12628,0,10,0,141,470,462,0
12640,0,4,0,125,461,462,0
12652,0,2,0,138,458,462,0
12663,0,0,0,131,452,462,0
12675,0,0,0,128,447,462,0
12687,0,0,0,110,443,462,0
12698,0,0,0,130,439,462,0
12710,0,0,0,127,436,462,0
12722,0,0,0,129,432,462,0
12734,0,0,0,133,429,462,0
12745,0,0,0,133,425,462,0
12757,0,0,0,159,422,462,0
12769,0,0,0,177,419,462,0
12780,0,0,0,194,418,462,0
12792,0,0,0,206,415,462,0
12804,0,0,0,219,413,462,0
12815,0,0,0,240,412,462,0
12827,0,0,0,263,412,462,0
12839,0,0,0,281,413,462,0
12851,0,0,0,297,413,462,0
12862,0,0,0,315,414,462,0
12874,0,0,0,327,416,462,0
12886,0,0,0,334,418,462,0
12897,0,0,0,340,420,462,0
12909,0,0,0,357,423,462,0
12921,0,0,0,372,425,462,0
12932,0,0,0,384,426,462,0
12944,0,0,0,397,428,462,0
12956,0,0,0,408,430,462,0
12968,0,0,0,419,431,462,0
12979,0,0,0,432,432,462,0
12991,0,0,0,443,433,462,0
13003,0,0,0,452,436,461,0
13014,0,0,0,456,438,462,0
13026,0,0,0,464,439,462,0
13038,0,0,0,470,440,462,0
13050,2,0,0,475,440,462,0
13061,2,0,0,476,441,462,0
13073,5,0,0,483,444,462,0
13085,6,0,0,486,444,462,0
13096,7,0,0,490,445,462,0
13108,8,0,0,494,448,462,0
13120,9,0,0,496,448,462,0
13131,10,0,0,498,450,462,0
13143,11,0,0,503,450,462,0
13155,12,0,0,505,450,462,0
13167,13,0,0,506,451,462,0
13178,13,0,0,507,453,462,0
13190,13,0,0,507,454,462,0
13202,13,0,0,508,454,462,0
13213,15,0,0,512,453,462,0
13225,15,0,0,513,453,462,0
13237,15,0,0,513,453,462,0
13249,15,0,0,514,454,462,0
13260,15,1,0,514,455,462,0
13272,15,1,0,514,456,462,0
13284,15,2,0,514,457,462,0
13295,16,2,0,516,458,462,0
13307,17,3,0,518,459,462,0
13319,16,3,0,517,459,462,0
13330,17,3,0,519,459,462,0
13342,17,2,0,518,458,462,0
13354,16,2,0,517,458,462,0
13366,16,3,0,516,459,462,0
13377,16,2,0,517,458,462,0
13389,16,2,0,517,457,462,0
13401,16,2,0,516,457,462,0
13412,16,1,0,515,456,462,0
13424,16,1,0,515,455,462,0
13436,15,0,0,514,454,462,0
13448,15,0,0,513,453,462,0
13459,14,0,0,510,453,462,0
13471,14,0,0,511,454,462,0
13483,14,0,0,510,454,462,0
13494,14,0,0,509,454,462,0
13506,14,0,0,509,453,462,0
13518,13,0,0,508,452,462,0
13529,13,0,0,508,449,462,0
13541,13,0,0,508,448,462,0
13553,13,0,0,507,451,462,0
13565,13,0,0,508,450,462,0
13576,13,0,0,508,450,462,0
13588,13,0,0,507,450,462,0
13600,13,0,0,506,452,462,0
13611,12,0,0,505,448,462,0
13623,11,0,0,502,446,462,0
13635,11,0,0,502,446,462,0
13646,10,0,0,499,445,462,0
13658,10,0,0,498,449,462,0
13670,11,0,0,501,447,462,0
13682,11,0,0,502,449,462,0
13693,11,0,0,502,447,462,0
13705,12,0,0,505,452,462,0
13717,13,0,0,508,454,462,0
13728,14,1,0,509,456,461,0
13740,15,3,0,513,459,462,0
13752,16,5,0,516,463,462,0
13764,17,7,0,520,465,462,0
13775,19,10,0,525,470,462,0
13787,20,9,0,529,469,462,0
13799,21,14,0,531,477,462,0
13810,23,14,0,538,478,462,0
13822,24,17,0,541,483,462,0
13834,27,19,0,550,486,462,0
13845,29,19,0,555,485,462,0
13857,26,19,0,546,486,462,0
13869,32,24,0,563,494,462,0
13881,35,29,0,573,503,462,0
13892,38,31,0,582,505,462,0
13904,39,32,0,583,508,462,0
13916,42,30,0,592,504,462,0
13927,45,32,0,603,508,462,0
13939,48,32,0,612,508,462,0
13951,46,32,0,604,508,462,0
13963,54,37,0,630,515,462,0
13974,58,38,0,642,517,462,0
13986,57,37,0,639,516,462,0
13998,56,37,0,635,516,462,0
14009,57,35,0,637,512,462,0
14021,65,37,0,662,516,461,0
14033,63,35,0,656,513,461,0
14046,61,37,0,651,515,461,0
14058,66,33,0,664,509,461,0
14069,75,39,0,692,519,462,0
14081,70,38,0,676,518,462,0
14093,68,33,0,671,509,462,0
14104,76,36,0,694,514,461,0
14116,79,34,0,702,511,462,0
14128,66,30,0,665,504,462,0
14140,74,31,0,687,505,462,0
14151,83,32,0,715,507,462,0
14163,76,28,0,693,501,461,0
14175,75,29,0,692,503,462,0
14186,77,26,0,697,498,462,0
14198,72,25,0,683,495,462,0
14210,69,19,0,674,486,462,0
14222,60,14,0,647,477,462,0
14233,56,13,0,635,475,462,0
14245,46,8,0,604,468,462,0
14257,51,11,0,621,473,462,0
14268,57,8,0,637,468,462,0
14280,52,4,0,624,460,462,0
14292,49,8,0,613,468,462,0
14303,51,4,0,620,460,462,0
14315,43,2,0,595,458,462,0
14327,26,0,0,546,449,462,0
14339,27,0,0,548,451,462,0
14350,23,0,0,537,440,462,0
14362,25,0,0,543,442,462,0
14374,29,0,0,554,437,462,0
14385,26,0,0,545,440,462,0
14397,25,0,0,543,445,462,0
14409,21,0,0,532,442,462,0
14421,7,0,0,490,430,462,0
14432,3,0,0,478,423,462,0
14444,0,0,0,448,424,461,0
14456,0,0,0,394,408,462,0
14467,0,0,0,396,388,462,0
14479,0,0,0,363,389,462,0
14491,0,0,0,365,381,462,0
14502,0,0,0,353,378,462,0
14514,0,0,0,355,375,461,0
14526,0,0,0,337,368,462,0
14538,0,0,0,327,364,462,0
14549,0,0,0,305,352,462,0
14561,0,0,0,328,350,462,0
14573,0,0,0,334,345,462,0
14584,0,0,0,333,347,462,0
14596,0,0,0,314,348,462,0
14608,0,0,0,321,351,462,0
14620,0,0,0,318,352,463,0
14631,0,0,0,307,357,462,0
14643,0,0,0,293,358,462,0
14655,0,0,0,285,364,462,0
14666,0,0,0,280,369,462,0
14678,0,0,0,267,372,462,0
14690,0,0,0,264,382,462,0
14701,0,0,0,253,387,462,0
14713,0,0,0,251,396,462,0
14725,0,0,0,253,398,462,0
14737,0,0,0,254,409,462,0
14748,0,0,0,254,411,462,0
14760,0,0,0,262,420,462,0
14772,0,0,0,258,427,462,0
14783,0,0,0,271,435,462,0
14795,0,0,0,258,437,462,0
14807,0,0,0,279,444,462,0
14818,0,0,0,279,446,462,0
14830,0,0,0,302,450,462,0
14842,0,0,0,310,453,462,0
14854,0,1,0,334,456,462,0
14865,0,4,0,348,460,462,0
14877,0,0,0,334,453,462,0
14889,0,5,0,391,463,462,0
14900,0,8,0,381,468,462,0
14912,0,5,0,392,462,462,0
14924,0,7,0,411,466,462,0
14936,0,1,0,437,455,462,0
14947,15,9,0,514,469,462,0
14959,15,11,0,512,473,462,0
14971,36,18,0,575,484,462,0
14982,42,29,0,593,503,462,0
14994,57,38,0,637,517,462,0
15006,50,32,0,616,507,462,0
15017,66,29,0,663,502,462,0
15029,67,35,0,668,512,462,0
15041,80,42,0,706,524,462,0
15053,64,47,0,658,533,462,0
15064,78,49,0,699,535,462,0
15076,86,54,0,725,544,462,0
15088,58,54,0,642,545,462,0
15099,81,60,0,709,554,462,0
15111,66,62,0,664,558,462,0
15123,63,59,0,656,552,462,0
15135,48,59,0,611,552,462,0
15146,46,60,0,605,554,462,0
15158,39,70,0,585,571,462,0
15170,38,70,0,581,571,462,0
15181,23,69,0,537,569,462,0
15193,20,63,0,528,560,462,0
15205,16,66,0,516,564,462,0
15216,5,70,0,485,571,462,0
15228,5,69,0,485,570,462,0
15240,0,67,0,431,566,462,0
15252,0,66,0,419,564,462,0
15263,0,66,0,413,564,462,0
15275,0,66,0,406,564,462,0
15287,0,60,0,353,555,462,0
15298,0,58,0,360,551,462,0
15310,0,57,0,323,549,462,0
15322,0,54,0,330,544,462,0
15334,0,49,0,293,536,462,0
15345,0,42,0,262,524,462,0
15357,0,35,0,245,513,462,0
15369,0,26,0,213,498,462,0
15380,0,20,0,212,487,462,0
15392,0,14,0,187,478,462,0
15404,0,7,0,161,465,462,0
15415,0,1,0,137,455,461,0
15427,0,0,0,129,447,462,0
15439,0,0,0,120,440,462,0
15451,0,0,0,120,435,462,0
15462,0,0,0,115,431,462,0
15474,0,0,0,105,426,462,0
15486,0,0,0,101,419,462,0
15497,0,0,0,115,415,462,0
15509,0,0,0,120,413,462,0
15521,0,0,0,129,410,462,0
15532,0,0,0,133,405,462,0
15544,0,0,0,145,405,462,0
15556,0,0,0,163,402,462,0
15568,0,0,0,178,401,461,0
15579,0,0,0,193,398,462,0
15591,0,0,0,216,398,462,0
15603,0,0,0,238,394,462,0
15614,0,0,0,260,393,462,0
15626,0,0,0,278,391,462,0
15638,0,0,0,299,391,462,0
15650,0,0,0,312,392,462,0
15661,0,0,0,322,392,462,0
15673,0,0,0,336,393,462,0
15685,0,0,0,348,394,462,0
15696,0,0,0,360,394,462,0
15708,0,0,0,369,395,462,0
15720,0,0,0,379,397,462,0
15731,0,0,0,389,398,462,0
15743,0,0,0,398,399,462,0
15755,0,0,0,408,401,461,0
15767,0,0,0,415,403,462,0
15778,0,0,0,419,405,462,0
15790,0,0,0,428,406,462,0
15802,0,0,0,436,410,462,0
15813,0,0,0,440,414,462,0
15825,0,0,0,447,413,462,0
15837,0,0,0,455,419,462,0
15849,0,0,0,461,423,462,0
15860,0,0,0,464,427,462,0
15872,1,0,0,472,428,462,0
15884,2,0,0,476,432,462,0
15895,4,0,0,480,436,462,0
15907,5,0,0,483,437,462,0
15919,5,0,0,484,439,462,0
15930,6,0,0,488,439,462,0
15942,7,0,0,490,440,462,0
15954,8,0,0,493,441,461,0
15966,9,0,0,496,442,462,0
15977,9,0,0,497,446,462,0
15989,10,0,0,500,448,462,0
16001,10,0,0,500,450,462,0
16012,10,0,0,500,450,462,0
16024,11,0,0,501,450,462,0
16036,10,0,0,500,451,462,0
16049,11,0,0,502,451,462,0
16061,12,0,0,504,452,462,0
16072,11,0,0,502,453,462,0
16084,11,0,0,503,454,462,0
16096,12,1,0,504,455,462,0
16107,12,1,0,504,456,462,0
16119,12,2,0,505,457,462,0
16131,12,2,0,504,458,462,0
16143,12,3,0,505,459,462,0
16154,12,3,0,505,459,462,0
16166,13,4,0,506,460,462,0
16178,14,5,0,509,462,462,0
16189,15,5,0,512,462,462,0
16201,15,5,0,513,462,462,0
16213,14,4,0,509,461,462,0
16225,14,5,0,509,462,462,0
16236,14,6,0,509,464,462,0
16248,13,6,0,508,464,462,0
16260,13,6,0,508,464,462,0
16271,13,6,0,507,464,462,0
16283,13,7,0,506,465,462,0
16295,14,6,0,509,464,462,0
16306,15,9,0,512,469,462,0
16318,15,9,0,512,469,462,0
16330,15,10,0,514,470,462,0
16342,16,10,0,515,471,462,0
16353,16,11,0,517,473,462,0
16365,16,13,0,517,476,462,0
16377,17,12,0,520,474,462,0
16388,18,14,0,522,477,462,0
16400,19,14,0,525,477,462,0
16412,20,17,0,528,482,462,0
16424,20,16,0,529,480,462,0
16435,23,19,0,536,486,462,0
16447,24,20,0,539,487,462,0
16459,25,23,0,543,493,462,0
16470,27,24,0,548,494,462,0
16482,28,27,0,553,499,462,0
16494,29,29,0,555,503,462,0
16505,30,30,0,557,504,462,0
16517,31,32,0,560,507,462,0
16529,28,31,0,553,506,462,0
16541,29,32,0,555,507,462,0
16552,32,31,0,563,505,462,0
16564,32,31,0,564,506,462,0
16576,33,32,0,567,508,462,0
16587,34,35,0,570,512,462,0
16599,35,32,0,572,508,462,0
16611,36,33,0,575,509,462,0
16622,38,31,0,580,506,462,0
16634,39,34,0,585,510,462,0
16646,41,32,0,589,508,462,0
16658,43,32,0,595,507,462,0
16669,44,36,0,598,514,462,0
16681,43,32,0,596,507,462,0
16693,43,35,0,596,512,462,0
16704,47,35,0,608,513,462,0
16716,48,35,0,610,512,462,0
16728,52,34,0,622,510,462,0
16740,54,33,0,629,509,462,0
16751,52,33,0,623,509,462,0
16763,56,37,0,634,516,462,0
16775,54,34,0,629,510,462,0
16786,54,34,0,629,510,462,0
16798,56,36,0,636,514,462,0
16810,53,35,0,626,513,461,0
16821,61,37,0,651,515,462,0
16833,61,35,0,650,513,462,0
16845,63,38,0,654,518,462,0
16857,64,37,0,659,516,462,0
16868,67,37,0,668,515,462,0
16880,63,37,0,654,516,462,0
16892,63,31,0,655,505,462,0
16903,65,30,0,661,504,462,0
16915,65,34,0,662,511,462,0
16927,51,30,0,619,504,461,0
16939,63,31,0,655,506,462,0
16950,64,31,0,658,505,462,0
16962,61,27,0,649,499,462,0
16974,76,28,0,694,500,462,0
16985,77,23,0,697,493,462,0
16997,79,21,0,702,489,462,0
17009,76,15,0,693,479,462,0
17020,80,17,0,706,482,462,0
17032,71,16,0,679,480,462,0
17044,77,17,0,696,482,462,0
17056,83,17,0,714,483,462,0
17067,79,17,0,702,483,462,0
17079,74,17,0,688,483,462,0
17091,63,17,0,654,482,462,0
17102,55,10,0,631,471,462,0
17114,50,7,0,616,465,462,0
17126,40,0,0,588,452,462,0
17138,38,0,0,581,449,462,0
17149,28,0,0,552,446,462,0
17161,20,0,0,529,438,462,0
17173,10,0,0,500,432,462,0
17184,0,0,0,469,420,462,0
17196,0,0,0,454,417,462,0
17208,0,0,0,427,415,462,0
17219,0,0,0,399,408,462,0
17231,0,0,0,375,394,462,0
17243,0,0,0,354,387,462,0
17255,0,0,0,338,384,462,0
17266,0,0,0,337,376,462,0
17278,0,0,0,328,374,462,0
17290,0,0,0,315,364,462,0
17301,0,0,0,313,361,462,0
17313,0,0,0,281,357,462,0
17325,0,0,0,294,356,462,0
17337,0,0,0,300,356,462,0
17348,0,0,0,301,352,462,0
17360,0,0,0,313,362,462,0
17372,0,0,0,305,362,462,0
17383,0,0,0,310,369,462,0
17395,0,0,0,299,371,462,0
17407,0,0,0,316,379,462,0
17418,0,0,0,313,384,462,0
17430,0,0,0,317,386,462,0
17442,0,0,0,312,393,462,0
17454,0,0,0,305,390,462,0
17465,0,0,0,308,394,462,0
17477,0,0,0,303,415,462,0
17489,0,0,0,328,413,462,0
17500,0,0,0,326,420,462,0
17512,0,0,0,326,418,462,0
17524,0,0,0,316,429,462,0
17535,0,0,0,339,444,462,0
17547,0,0,0,341,438,462,0
17559,0,0,0,346,452,462,0
17571,0,1,0,346,456,462,0
17582,0,0,0,318,451,462,0
17594,0,6,0,345,464,462,0
17606,0,2,0,352,457,462,0
17617,0,5,0,388,462,462,0
17629,0,10,0,403,471,462,0
17641,0,8,0,406,468,462,0
17653,0,16,0,418,480,462,0
17664,2,25,0,475,496,462,0
17676,0,17,0,441,482,462,0
17688,19,20,0,524,487,462,0
17699,25,25,0,542,495,462,0
17711,37,30,0,579,504,462,0
17723,47,36,0,609,514,462,0
17734,42,41,0,592,522,462,0
17746,67,50,0,667,537,462,0
17758,53,56,0,627,547,462,0
17770,69,56,0,674,547,462,0
17781,54,56,0,629,547,462,0
17793,60,55,0,647,546,462,0
17805,66,59,0,664,552,462,0
17816,55,57,0,632,550,462,0
17828,65,59,0,662,553,462,0
17840,48,62,0,610,557,462,0
17852,50,62,0,616,557,462,0
17863,32,65,0,564,563,462,0
17875,36,62,0,575,557,462,0
17887,25,59,0,543,552,462,0
17898,25,59,0,544,553,462,0
17910,8,61,0,494,556,462,0
17922,11,62,0,502,558,462,0
17933,7,60,0,490,555,462,0
17945,0,58,0,443,551,462,0
17957,0,58,0,438,551,462,0
17969,0,53,0,388,543,462,0
17980,0,50,0,384,538,462,0
17992,0,49,0,344,535,462,0
18004,0,47,0,368,532,462,0
18015,0,44,0,330,527,462,0
18027,0,40,0,315,520,462,0
18039,0,35,0,310,512,462,0
18051,0,30,0,288,504,462,0
18063,0,29,0,290,502,462,0
18075,0,21,0,266,489,462,0
18087,0,22,0,262,490,462,0
18099,0,16,0,260,481,463,0
18110,0,10,0,231,471,462,0
18122,0,8,0,250,467,462,0
18134,0,3,0,223,459,462,0
18145,0,1,0,237,455,462,0
18157,0,0,0,203,451,462,0
18169,0,0,0,182,441,462,0
18181,0,0,0,210,440,462,0
18192,0,0,0,198,436,462,0
18204,0,0,0,195,433,462,0
18216,0,0,0,180,432,462,0
18227,0,0,0,209,428,462,0
18239,0,0,0,193,431,462,0
18251,0,0,0,207,429,462,0
18262,0,0,0,209,428,462,0
18274,0,0,0,213,428,462,0
18286,0,0,0,226,426,462,0
18298,0,0,0,226,422,462,0
18309,0,0,0,229,427,462,0
18321,0,0,0,246,425,461,0
18333,0,0,0,253,425,462,0
18344,0,0,0,265,424,462,0
18356,0,0,0,277,423,462,0
18368,0,0,0,291,420,462,0
18380,0,0,0,302,418,462,0
18391,0,0,0,313,415,462,0
18403,0,0,0,323,412,462,0
18415,0,0,0,337,413,462,0
18426,0,0,0,346,411,462,0
18438,0,0,0,353,410,462,0
18450,0,0,0,366,409,462,0
18461,0,0,0,374,408,462,0
18473,0,0,0,383,410,462,0
18485,0,0,0,392,409,462,0
18497,0,0,0,401,408,462,0
18508,0,0,0,409,408,462,0
18520,0,0,0,415,406,462,0
18532,0,0,0,423,406,462,0
18543,0,0,0,430,408,462,0
18555,0,0,0,438,411,462,0
18567,0,0,0,446,414,462,0
18578,0,0,0,452,417,462,0
18590,0,0,0,459,418,462,0
18602,0,0,0,466,421,462,0
18614,1,0,0,471,425,462,0
18625,3,0,0,477,428,462,0
18637,3,0,0,479,430,462,0
18649,5,0,0,483,430,462,0
18660,7,0,0,489,431,462,0
18672,8,0,0,494,433,462,0
18684,10,0,0,498,435,461,0
18696,11,0,0,501,437,462,0
18707,12,0,0,504,439,462,0
18719,13,0,0,507,441,462,0
18731,13,0,0,508,442,462,0
18742,14,0,0,510,443,462,0
18754,14,0,0,511,445,462,0
18766,15,0,0,512,445,462,0
18777,15,0,0,513,447,462,0
18789,15,0,0,514,449,462,0
18801,15,0,0,514,449,462,0
18813,15,0,0,514,451,462,0
18824,16,0,0,515,452,462,0
18836,16,0,0,515,452,462,0
18848,15,0,0,514,452,462,0
18859,15,0,0,514,453,462,0
18871,15,0,0,513,453,462,0
18883,16,0,0,515,453,462,0
18895,15,0,0,514,453,462,0
18906,16,0,0,515,453,462,0
18918,15,0,0,514,453,462,0
18930,15,0,0,514,454,462,0
18941,15,0,0,514,453,462,0
18953,15,0,0,514,453,462,0
18965,15,0,0,513,454,462,0
18976,14,0,0,509,453,462,0
18988,14,0,0,509,452,462,0
19000,13,0,0,508,451,462,0
19012,13,0,0,506,451,462,0
19023,13,0,0,506,451,462,0
19035,12,0,0,505,451,462,0
19047,11,0,0,503,451,462,0
19058,11,0,0,501,453,462,0
19070,11,0,0,503,452,462,0
19082,11,0,0,501,452,462,0
19094,11,0,0,501,452,462,0
19105,10,0,0,499,452,462,0
19117,10,0,0,499,452,462,0
19129,10,0,0,499,451,462,0
19140,10,0,0,498,452,462,0
19152,9,0,0,497,452,462,0
19164,9,0,0,497,452,462,0
19175,9,0,0,496,452,462,0
19187,9,0,0,497,451,462,0
19199,9,0,0,495,451,462,0
19211,8,0,0,494,452,462,0
19222,8,0,0,494,453,462,0
19234,8,0,0,492,453,462,0
19246,8,0,0,493,453,462,0
19257,8,0,0,492,453,462,0
19269,8,0,0,492,453,462,0
19281,7,0,0,491,453,462,0
19292,7,0,0,490,453,462,0
19304,7,0,0,490,453,462,0
19316,7,0,0,489,453,462,0
19328,7,1,0,490,455,462,0
19339,7,0,0,490,454,462,0
19351,8,1,0,492,456,462,0
19363,8,1,0,492,456,462,0
19374,8,2,0,492,457,462,0
19386,8,1,0,493,456,462,0
19398,8,2,0,494,458,462,0
19410,9,2,0,495,457,462,0
19421,8,2,0,492,457,462,0
19433,8,1,0,492,456,462,0
19445,10,2,0,498,457,462,0
19456,11,2,0,502,458,461,0
19468,13,7,0,507,465,462,0
19480,13,8,0,506,468,462,0
19491,15,8,0,514,467,462,0
19503,17,10,0,518,471,462,0
19515,17,12,0,518,474,462,0
19527,18,12,0,521,474,462,0
19538,18,14,0,522,477,462,0
19550,18,12,0,522,474,462,0
19562,19,17,0,526,482,462,0
19573,17,18,0,520,484,462,0
19585,21,19,0,532,485,462,0
19597,22,20,0,534,488,462,0
19609,22,20,0,534,487,462,0
19620,23,22,0,536,491,462,0
19632,22,20,0,533,487,462,0
19644,26,21,0,546,489,462,0
19655,28,23,0,553,492,462,0
19667,28,24,0,551,494,462,0
19679,33,24,0,566,494,462,0
19690,39,26,0,585,497,462,0
19702,38,22,0,580,491,462,0
19714,41,23,0,589,493,462,0
19726,47,28,0,607,501,462,0
19737,56,32,0,634,508,462,0
19749,57,30,0,637,504,462,0
19761,63,31,0,654,505,462,0
19772,64,37,0,658,516,461,0
19784,69,41,0,673,522,462,0
19796,64,37,0,658,516,461,0
19808,64,38,0,658,518,462,0
19819,67,40,0,667,520,462,0
19831,70,38,0,676,517,462,0
19843,68,35,0,671,513,462,0
19854,72,33,0,681,509,462,0
19866,57,32,0,637,507,462,0
19878,78,37,0,700,516,462,0
19889,75,38,0,690,517,462,0
19901,79,34,0,702,510,462,0
19913,75,31,0,692,505,462,0
19925,75,25,0,692,495,462,0
19936,83,27,0,714,499,462,0
19948,78,25,0,701,495,462,0
19960,75,22,0,690,491,462,0
19971,67,18,0,667,484,462,0
19983,69,18,0,672,484,462,0
19995,52,11,0,624,472,462,0
20006,60,10,0,648,470,462,0
20018,56,8,0,636,468,462,0
20030,50,7,0,616,465,462,0
20042,49,7,0,613,466,462,0
20055,28,0,0,552,453,462,0
20067,38,0,0,582,448,462,0
20078,34,0,0,569,448,462,0
20090,35,0,0,573,439,462,0
20102,26,0,0,547,442,462,0
20113,25,0,0,544,439,462,0
20125,14,0,0,511,424,462,0
20137,9,0,0,495,418,462,0
20148,4,0,0,480,413,462,0
20160,0,0,0,433,407,462,0
20172,0,0,0,441,403,462,0
20184,0,0,0,418,397,461,0
20195,0,0,0,397,389,462,0
20207,0,0,0,377,380,462,0
20219,0,0,0,360,376,462,0
20230,0,0,0,327,360,462,0
20242,0,0,0,324,361,462,0
20254,0,0,0,314,351,462,0
20265,0,0,0,305,341,462,0
20277,0,0,0,287,332,462,0
20289,0,0,0,298,330,462,0
20301,0,0,0,283,329,462,0
20312,0,0,0,303,327,462,0
20324,0,0,0,313,329,462,0
20336,0,0,0,319,334,462,0
20347,0,0,0,324,337,462,0
20359,0,0,0,326,339,462,0
20371,0,0,0,335,351,462,0
20383,0,0,0,334,358,462,0
20394,0,0,0,333,361,462,0
20406,0,0,0,330,371,462,0
20418,0,0,0,316,380,462,0
20429,0,0,0,304,386,462,0
20441,0,0,0,317,393,462,0
20453,0,0,0,309,403,462,0
20464,0,0,0,312,409,462,0
20476,0,0,0,324,420,462,0
20488,0,0,0,320,429,462,0
20500,0,0,0,299,437,462,0
20511,0,0,0,289,439,462,0
20523,0,0,0,276,440,462,0
20535,0,0,0,328,446,462,0
20546,0,0,0,307,453,462,0
20558,0,3,0,302,459,462,0
20570,0,10,0,374,471,462,0
20582,0,18,0,380,484,462,0
20593,0,23,0,431,492,462,0
20605,0,23,0,387,492,462,0
20617,0,17,0,400,482,462,0
20628,0,18,0,437,484,462,0
20640,0,16,0,414,481,462,0
20652,3,23,0,479,492,462,0
20663,0,29,0,457,503,462,0
20675,18,34,0,521,510,462,0
20687,13,36,0,508,514,462,0
20699,34,39,0,570,519,462,0
20710,38,43,0,581,525,462,0
20722,44,41,0,600,522,462,0
20734,57,51,0,637,539,462,0
20745,54,53,0,628,543,462,0
20757,71,62,0,678,557,462,0
20769,54,55,0,629,546,462,0
20781,68,55,0,671,546,462,0
20792,49,60,0,613,555,462,0
20804,57,60,0,638,554,462,0
20816,53,62,0,626,558,461,0
20827,51,66,0,619,565,462,0
20839,44,66,0,598,564,462,0
20851,41,65,0,591,562,462,0
20862,25,62,0,544,558,462,0
20874,26,66,0,546,564,462,0
20886,16,67,0,517,566,461,0
20898,17,68,0,520,568,462,0
20909,3,64,0,477,561,462,0
20921,0,61,0,430,556,462,0
20933,0,65,0,456,563,462,0
20944,0,63,0,421,559,462,0
20956,0,59,0,417,553,462,0
20968,0,54,0,362,544,462,0
20979,0,50,0,375,538,462,0
20991,0,46,0,339,531,462,0
21003,0,41,0,325,522,462,0
21015,0,35,0,289,513,462,0
21026,0,26,0,253,498,462,0
21038,0,23,0,253,493,462,0
21050,0,17,0,233,482,462,0
21061,0,10,0,212,471,462,0
21073,0,4,0,187,460,461,0
21085,0,0,0,157,445,462,0
21097,0,0,0,161,437,462,0
21108,0,0,0,144,428,462,0
21120,0,0,0,127,420,462,0
21132,0,0,0,118,416,462,0
21143,0,0,0,101,411,462,0
21155,0,0,0,106,405,462,0
21167,0,0,0,94,401,462,0
21178,0,0,0,94,396,462,0
21190,0,0,0,106,391,462,0
21202,0,0,0,112,388,462,0
21214,0,0,0,124,384,462,0
21225,0,0,0,136,381,462,0
21237,0,0,0,149,378,462,0
21249,0,0,0,162,374,462,0
21260,0,0,0,180,370,462,0
21272,0,0,0,198,370,462,0
21284,0,0,0,221,368,462,0
21296,0,0,0,244,368,462,0
21307,0,0,0,263,368,462,0
21319,0,0,0,279,371,462,0
21331,0,0,0,291,373,462,0
21342,0,0,0,304,376,462,0
21354,0,0,0,317,379,462,0
21366,0,0,0,328,383,462,0
21377,0,0,0,338,386,462,0
21389,0,0,0,347,390,462,0
21401,0,0,0,354,392,462,0
21413,0,0,0,363,394,462,0
21424,0,0,0,370,396,462,0
21436,0,0,0,378,397,462,0
21448,0,0,0,384,400,462,0
21459,0,0,0,391,404,462,0
21471,0,0,0,397,410,462,0
21483,0,0,0,404,413,462,0
21494,0,0,0,409,416,462,0
21506,0,0,0,413,420,462,0
21518,0,0,0,417,422,462,0
21530,0,0,0,421,425,462,0
21541,0,0,0,425,428,462,0
21553,0,0,0,428,432,462,0
21565,0,0,0,433,436,462,0
21576,0,0,0,436,439,462,0
21588,0,0,0,441,442,462,0
21600,0,0,0,445,445,462,0
21612,0,0,0,449,448,462,0
21623,0,0,0,452,451,462,0
21635,0,0,0,453,454,461,0
21647,0,1,0,456,456,462,0
21658,0,2,0,459,458,461,0
21670,0,4,0,461,460,461,0
21682,0,5,0,463,463,462,0
21693,0,7,0,466,465,462,0
21705,0,8,0,469,468,462,0
21717,1,10,0,471,470,462,0
21729,2,11,0,474,472,462,0
21740,2,11,0,476,473,462,0
21752,3,12,0,477,474,462,0
21764,4,13,0,480,476,462,0
21775,4,14,0,481,478,462,0
21787,5,15,0,483,479,462,0
21799,5,16,0,485,480,462,0
21811,6,16,0,487,480,462,0
21822,7,16,0,489,480,462,0
21834,8,16,0,493,480,462,0
21846,9,16,0,495,480,462,0
21857,9,16,0,496,481,462,0
21869,9,16,0,497,481,462,0
21881,9,17,0,497,482,462,0
21892,9,18,0,497,484,462,0
21904,10,19,0,498,486,462,0
21916,10,19,0,498,486,462,0
21928,10,20,0,499,488,462,0
21939,10,21,0,498,489,462,0
21951,10,23,0,500,493,462,0
21963,11,24,0,503,494,462,0
21974,11,25,0,502,496,462,0
21986,12,25,0,505,495,462,0
21998,12,25,0,505,496,462,0
22010,13,25,0,506,495,462,0
22021,13,25,0,506,495,462,0
22033,13,25,0,508,496,462,0
22045,14,25,0,509,496,462,0
22057,14,26,0,509,497,462,0
22069,14,27,0,510,499,462,0
22081,15,26,0,512,498,462,0
22093,15,26,0,513,498,462,0
22104,15,25,0,513,496,462,0
22116,15,25,0,513,495,462,0
22128,15,23,0,514,493,462,0
22140,15,24,0,514,494,462,0
22151,16,24,0,515,494,462,0
22163,16,22,0,515,491,462,0
22175,15,24,0,512,494,462,0
22186,15,22,0,513,491,462,0
22198,15,20,0,514,487,462,0
22210,17,22,0,518,490,462,0
22221,16,20,0,516,488,461,0
22233,16,17,0,515,482,462,0
22245,17,23,0,519,492,462,0
22257,19,20,0,524,488,462,0
22268,20,23,0,528,493,462,0
22280,20,23,0,528,492,462,0
22292,20,22,0,527,491,462,0
22303,20,24,0,528,494,462,0
22315,21,25,0,530,496,462,0
22327,21,25,0,530,495,462,0
22339,21,22,0,531,490,462,0
22350,21,23,0,532,492,462,0
22362,21,21,0,532,489,462,0
22374,23,20,0,537,487,462,0
22385,24,20,0,541,487,462,0
22397,26,19,0,545,486,462,0
22409,27,19,0,549,485,462,0
22420,28,20,0,552,488,462,0
22432,30,21,0,557,489,462,0
22444,32,23,0,564,492,462,0
22456,33,24,0,566,494,462,0
22467,35,28,0,573,500,462,0
22479,37,30,0,579,504,462,0
22491,38,34,0,581,511,462,0
22503,39,32,0,583,508,462,0
22515,41,34,0,589,510,462,0
22527,45,37,0,601,516,462,0
22538,45,39,0,602,519,462,0
22550,48,42,0,610,524,462,0
22562,52,43,0,622,525,462,0
22573,50,44,0,616,527,462,0
22585,57,47,0,639,533,462,0
22597,58,47,0,640,533,462,0
22609,60,51,0,646,539,462,0
22620,64,48,0,658,534,462,0
22632,68,51,0,669,540,462,0
22644,75,53,0,690,543,462,0
22656,76,54,0,694,545,462,0
22667,69,53,0,674,542,462,0
22679,84,54,0,717,544,462,0
22691,92,59,0,740,553,462,0
22703,92,57,0,740,549,462,0
22714,94,57,0,747,550,462,0
22726,84,56,0,719,547,462,0
22738,98,57,0,759,549,462,0
22749,91,51,0,737,539,462,0
22761,88,44,0,728,527,462,0
22773,97,46,0,756,531,462,0
22784,98,43,0,759,526,462,0
22796,98,37,0,758,516,462,0
22808,90,35,0,735,513,462,0
22820,97,32,0,757,508,462,0
22831,85,28,0,722,500,462,0
22843,90,26,0,735,498,462,0
22855,91,20,0,739,487,462,0
22866,97,22,0,757,490,462,0
22878,90,18,0,736,484,462,0
22890,91,17,0,737,482,462,0
22902,87,16,0,726,480,462,0
22913,82,14,0,713,478,462,0
22925,73,16,0,686,480,462,0
22937,68,11,0,669,472,462,0
22948,51,5,0,621,462,462,0
22960,44,2,0,600,457,462,0
22972,47,4,0,609,461,462,0
22983,35,0,0,572,454,462,0
22995,30,0,0,559,442,462,0
23007,21,0,0,532,443,462,0
23019,14,0,0,509,438,462,0
23030,6,0,0,486,431,462,0
23042,0,0,0,465,416,462,0
23054,0,0,0,430,406,462,0
23065,0,0,0,404,398,462,0
23077,0,0,0,373,384,462,0
23089,0,0,0,362,373,462,0
23100,0,0,0,343,363,462,0
23112,0,0,0,312,345,462,0
23124,0,0,0,308,333,462,0
23136,0,0,0,308,336,462,0
23147,0,0,0,306,321,462,0
23159,0,0,0,302,322,462,0
23171,0,0,0,298,316,462,0
23182,0,0,0,288,319,462,0
23194,0,0,0,290,321,462,0
23206,0,0,0,290,322,462,0
23218,0,0,0,277,322,462,0
23229,0,0,0,285,331,462,0
23241,0,0,0,281,338,462,0
23253,0,0,0,273,344,462,0
23264,0,0,0,252,346,462,0
23276,0,0,0,268,353,462,0
23288,0,0,0,280,362,462,0
23299,0,0,0,277,377,462,0
23311,0,0,0,262,385,462,0
23323,0,0,0,284,389,462,0
23335,0,0,0,266,398,462,0
23346,0,0,0,289,406,462,0
23358,0,0,0,299,412,462,0
23370,0,0,0,267,414,462,0
23381,0,0,0,270,416,462,0
23393,0,0,0,297,414,462,0
23405,0,0,0,336,424,462,0
23417,0,0,0,334,437,462,0
23428,0,0,0,407,448,462,0
23440,0,7,0,468,465,462,0
23452,0,16,0,450,481,462,0
23463,0,20,0,466,488,462,0
23475,27,22,0,548,491,462,0
23487,8,22,0,494,490,462,0
23498,50,33,0,616,509,462,0
23510,37,43,0,579,525,462,0
23522,54,44,0,630,527,462,0
23534,52,48,0,623,534,462,0
23545,64,51,0,657,539,462,0
23557,62,52,0,652,541,462,0
23569,63,57,0,654,550,462,0
23580,57,60,0,639,554,462,0
23592,70,60,0,675,555,462,0
23604,47,62,0,609,558,463,0
23615,67,63,0,666,560,462,0
23627,58,69,0,641,570,462,0
23639,54,75,0,630,580,462,0
23651,51,73,0,621,576,462,0
23662,41,70,0,589,571,462,0
23674,43,70,0,597,571,462,0
23686,25,75,0,542,579,462,0
23697,24,74,0,540,577,462,0
23709,18,77,0,521,582,462,0
23721,9,75,0,496,580,461,0
23733,1,74,0,472,577,462,0
23744,2,72,0,475,574,462,0
23756,0,72,0,432,574,462,0
23768,0,71,0,442,573,462,0
23779,0,69,0,403,569,462,0
23791,0,65,0,381,562,462,0
23803,0,59,0,360,553,462,0
23814,0,55,0,321,546,462,0
23826,0,53,0,343,542,462,0
23838,0,48,0,316,534,462,0
23850,0,41,0,292,523,462,0
23861,0,32,0,270,508,462,0
23873,0,28,0,256,501,462,0
23885,0,21,0,242,489,462,0
23896,0,14,0,222,477,461,0
23908,0,7,0,218,465,462,0
23920,0,0,0,188,454,462,0
23932,0,0,0,183,448,462,0
23943,0,0,0,170,441,462,0
23955,0,0,0,152,433,462,0
23967,0,0,0,157,428,462,0
23978,0,0,0,145,424,462,0
23990,0,0,0,136,420,462,0
24002,0,0,0,137,417,462,0
24013,0,0,0,145,413,462,0
24025,0,0,0,155,411,461,0
24037,0,0,0,160,410,462,0
24049,0,0,0,171,406,462,0
24062,0,0,0,182,406,462,0
24074,0,0,0,200,404,462,0
24085,0,0,0,221,404,462,0
24097,0,0,0,235,403,462,0
24109,0,0,0,259,405,462,0
24121,0,0,0,278,401,462,0
24132,0,0,0,298,402,462,0
24144,0,0,0,311,402,462,0
24156,0,0,0,325,402,462,0
24167,0,0,0,334,404,462,0
24179,0,0,0,346,405,462,0
24191,0,0,0,356,407,462,0
24202,0,0,0,366,408,462,0
24214,0,0,0,377,410,462,0
24226,0,0,0,385,413,462,0
24238,0,0,0,394,414,462,0
24249,0,0,0,404,416,462,0
24261,0,0,0,410,416,462,0
24273,0,0,0,420,418,462,0
24284,0,0,0,426,419,462,0
24296,0,0,0,436,419,462,0
24308,0,0,0,440,420,462,0
24320,0,0,0,446,423,462,0
24331,0,0,0,451,426,462,0
24343,0,0,0,454,430,462,0
24355,0,0,0,458,432,462,0
24366,0,0,0,464,433,462,0
24378,0,0,0,469,435,462,0
24390,2,0,0,475,436,462,0
24401,3,0,0,478,438,462,0
24413,4,0,0,482,439,462,0
24425,5,0,0,484,439,462,0
24437,6,0,0,486,440,462,0
24448,6,0,0,488,442,462,0
24460,7,0,0,489,445,462,0
24472,8,0,0,492,448,462,0
24483,8,0,0,494,449,462,0
24495,9,0,0,495,450,462,0
24507,9,0,0,495,451,462,0
24518,10,0,0,498,452,462,0
24530,10,0,0,500,453,462,0
24542,11,0,0,502,453,462,0
24554,12,0,0,504,453,462,0
24565,12,1,0,504,455,462,0
24577,12,1,0,504,455,462,0
24589,12,1,0,505,455,462,0
24600,13,1,0,506,455,462,0
24612,13,1,0,507,456,462,0
24624,13,1,0,507,456,462,0
24636,13,2,0,508,458,462,0
24647,13,3,0,508,459,462,0
24659,13,3,0,508,459,462,0
24671,13,3,0,508,459,462,0
24682,13,3,0,508,459,462,0
24694,13,4,0,508,460,462,0
24706,14,4,0,509,461,461,0
24717,14,5,0,510,462,462,0
24729,14,5,0,509,463,462,0
24741,13,5,0,507,463,462,0
24753,13,5,0,507,462,462,0
24764,13,4,0,506,461,462,0
24776,12,4,0,505,461,461,0
24788,12,5,0,504,463,462,0
24799,11,7,0,503,465,462,0
24811,11,8,0,503,467,462,0
24823,11,8,0,502,467,462,0
24835,11,7,0,502,466,462,0
24846,11,7,0,501,466,462,0
24858,11,7,0,502,465,462,0
24870,11,7,0,501,465,462,0
24881,11,6,0,501,464,462,0
24893,11,5,0,502,463,462,0
24905,11,5,0,501,462,462,0
24916,11,4,0,501,461,462,0
24928,10,3,0,500,459,462,0
24940,10,3,0,500,459,462,0
24952,10,2,0,498,457,462,0
24963,10,1,0,498,456,462,0
24975,10,0,0,498,454,462,0
24987,9,0,0,497,454,462,0
24998,9,0,0,497,454,462,0
25010,9,1,0,497,456,462,0
25022,9,1,0,495,455,462,0
25034,9,0,0,496,453,462,0
25045,9,0,0,497,451,462,0
25057,9,0,0,497,451,462,0
25069,9,0,0,497,452,462,0
25080,10,0,0,498,453,462,0
25092,9,0,0,495,454,462,0
25104,10,1,0,498,455,462,0
25115,11,1,0,501,455,462,0
25127,12,1,0,504,456,462,0
25139,13,1,0,507,456,461,0
25151,14,5,0,511,462,462,0
25162,15,8,0,514,468,462,0
25174,16,10,0,515,470,462,0
25186,16,10,0,517,471,462,0
25197,17,8,0,519,467,462,0
25209,18,9,0,522,469,462,0
25221,16,7,0,517,465,462,0
25233,20,10,0,529,470,462,0
25244,22,11,0,535,472,462,0
25256,22,11,0,533,472,462,0
25268,23,13,0,537,475,462,0
25279,26,15,0,547,479,462,0
25291,29,15,0,555,479,462,0
25303,28,18,0,551,484,462,0
25314,28,19,0,551,486,462,0
25326,32,21,0,565,489,462,0
25338,38,22,0,580,491,462,0
25350,39,25,0,585,495,462,0
25361,44,28,0,598,500,462,0
25373,47,28,0,607,500,462,0
25385,47,26,0,609,497,462,0
25396,45,24,0,602,494,462,0
25408,51,28,0,619,500,461,0
25420,51,28,0,621,501,462,0
25431,57,32,0,638,507,462,0
25443,62,32,0,652,508,462,0
25455,67,33,0,666,509,462,0
25467,60,32,0,646,508,462,0
25478,67,31,0,668,506,462,0
25490,70,34,0,676,510,462,0
25502,68,29,0,669,503,462,0
25513,70,33,0,677,509,462,0
25525,62,29,0,653,503,462,0
25537,70,29,0,675,503,462,0
25549,62,23,0,653,492,462,0
25560,69,25,0,673,495,462,0
25572,44,17,0,599,482,462,0
25584,63,17,0,655,482,462,0
25595,63,14,0,654,478,462,0
25607,73,19,0,685,486,462,0
25619,65,17,0,662,483,462,0
25630,69,14,0,672,478,462,0
25642,68,13,0,669,476,462,0
25654,69,10,0,673,470,462,0
25666,64,6,0,659,464,462,0
25677,60,5,0,648,463,462,0
25689,64,3,0,658,459,462,0
25701,58,4,0,641,461,462,0
25712,49,0,0,613,451,462,0
25724,46,0,0,605,450,462,0
25736,47,1,0,608,456,462,0
25748,36,0,0,576,441,462,0
25759,25,0,0,543,437,462,0
25771,19,0,0,524,436,462,0
25783,28,0,0,553,426,462,0
25794,26,0,0,546,429,462,0
25806,19,0,0,524,422,462,0
25818,3,0,0,478,409,462,0
25829,0,0,0,464,408,462,0
25841,0,0,0,449,405,462,0
25853,0,0,0,415,393,462,0
25865,0,0,0,369,381,462,0
25876,0,0,0,375,366,462,0
25888,0,0,0,366,364,462,0
25900,0,0,0,336,354,462,0
25911,0,0,0,354,349,462,0
25923,0,0,0,345,342,462,0
25935,0,0,0,332,337,462,0
25947,0,0,0,334,342,462,0
25958,0,0,0,326,346,462,0
25970,0,0,0,308,349,462,0
25982,0,0,0,302,356,462,0
25993,0,0,0,280,352,462,0
26005,0,0,0,273,361,462,0
26017,0,0,0,262,368,462,0
26028,0,0,0,250,380,462,0
26040,0,0,0,236,384,462,0
26052,0,0,0,222,387,462,0
26065,0,0,0,214,396,462,0
26077,0,0,0,203,406,462,0
26088,0,0,0,199,413,462,0
26100,0,0,0,197,422,462,0
26112,0,0,0,199,426,462,0
26124,0,0,0,187,429,462,0
26135,0,0,0,211,438,462,0
26147,0,0,0,207,441,461,0
26159,0,0,0,234,443,462,0
26170,0,0,0,248,445,462,0
26182,0,0,0,237,440,462,0
26194,0,0,0,274,452,462,0
26205,0,0,0,264,447,462,0
26217,0,0,0,327,447,462,0
26229,0,1,0,374,455,462,0
26241,0,8,0,381,467,462,0
26252,0,11,0,421,472,462,0
26264,0,9,0,447,469,462,0
26276,0,8,0,468,467,462,0
26287,8,11,0,493,473,462,0
26299,24,20,0,541,488,462,0
26311,26,20,0,547,488,462,0
26322,38,20,0,581,487,462,0
26334,48,24,0,612,494,462,0
26346,49,26,0,615,498,462,0
26358,70,32,0,676,507,462,0
26369,64,35,0,657,513,462,0
26381,72,40,0,681,520,462,0
26393,71,41,0,679,522,462,0
26404,75,50,0,690,537,462,0
26416,75,46,0,690,530,462,0
26428,63,46,0,656,530,462,0
26440,54,53,0,629,543,462,0
26451,55,53,0,632,543,462,0
26463,55,54,0,631,545,462,0
26475,45,56,0,602,547,462,0
26486,44,56,0,600,547,462,0
26498,32,54,0,565,544,462,0
26510,31,55,0,561,546,462,0
26521,23,59,0,538,553,462,0
26533,21,60,0,530,555,462,0
26545,8,63,0,494,559,462,0
26557,11,63,0,502,559,462,0
26568,0,63,0,467,560,462,0
26580,0,62,0,455,557,462,0
26592,0,62,0,419,558,462,0
26603,0,62,0,406,557,462,0
26615,0,62,0,399,558,462,0
26627,0,59,0,357,553,462,0
26639,0,57,0,363,550,462,0
26650,0,55,0,343,546,462,0
26662,0,51,0,345,540,462,0
26674,0,49,0,317,535,462,0
26685,0,43,0,303,525,462,0
26697,0,35,0,267,513,462,0
26709,0,32,0,264,507,462,0
26720,0,25,0,244,495,462,0
26732,0,17,0,215,482,462,0
26744,0,11,0,201,473,462,0
26756,0,6,0,180,464,462,0
26767,0,0,0,172,453,462,0
26779,0,0,0,144,443,462,0
26791,0,0,0,134,436,462,0
26802,0,0,0,134,429,462,0
26814,0,0,0,130,423,462,0
26826,0,0,0,125,416,462,0
26838,0,0,0,122,412,462,0
26849,0,0,0,126,407,462,0
26861,0,0,0,136,403,462,0
26873,0,0,0,145,401,462,0
26884,0,0,0,154,399,462,0
26896,0,0,0,171,396,462,0
26908,0,0,0,187,394,462,0
26919,0,0,0,205,392,462,0
26931,0,0,0,224,391,462,0
26943,0,0,0,244,389,462,0
26955,0,0,0,266,387,462,0
26966,0,0,0,283,387,462,0
26978,0,0,0,298,385,462,0
26990,0,0,0,312,387,462,0
27001,0,0,0,328,388,462,0
27013,0,0,0,337,389,462,0
27025,0,0,0,349,390,462,0
27036,0,0,0,362,394,462,0
27048,0,0,0,371,396,462,0
27060,0,0,0,381,399,462,0
27072,0,0,0,389,402,462,0
27083,0,0,0,395,403,462,0
27095,0,0,0,403,405,462,0
27107,0,0,0,411,406,462,0
27118,0,0,0,417,407,462,0
27130,0,0,0,426,408,462,0
27142,0,0,0,434,411,462,0
27154,0,0,0,438,415,462,0
27165,0,0,0,438,414,462,0
27177,0,0,0,442,415,462,0
27189,0,0,0,445,418,462,0
27200,0,0,0,448,421,462,0
27212,0,0,0,452,422,462,0
27224,0,0,0,457,424,462,0
27235,0,0,0,459,423,462,0
27247,0,0,0,459,424,462,0
27259,0,0,0,458,425,462,0
27271,0,0,0,460,425,462,0
27282,0,0,0,463,426,462,0
27294,0,0,0,466,428,462,0
27306,0,0,0,466,430,462,0
27317,0,0,0,467,431,461,0
27329,0,0,0,468,431,462,0
27341,0,0,0,468,433,462,0
27353,0,0,0,468,434,462,0
27364,0,0,0,467,435,462,0
27376,0,0,0,468,434,462,0
27388,0,0,0,468,434,462,0
27399,0,0,0,469,435,462,0
27411,0,0,0,468,435,462,0
27423,0,0,0,467,437,462,0
27434,0,0,0,467,437,462,0
27446,0,0,0,467,439,462,0
27458,0,0,0,467,440,462,0
27470,0,0,0,467,441,462,0
27481,0,0,0,465,442,462,0
27493,0,0,0,466,443,462,0
27505,0,0,0,467,444,462,0
27516,0,0,0,467,445,462,0
27528,0,0,0,467,446,462,0
27540,0,0,0,468,448,462,0
27551,0,0,0,468,449,462,0
27563,0,0,0,467,449,462,0
27575,0,0,0,466,449,461,0
27587,0,0,0,465,449,462,0
27598,0,0,0,464,449,462,0
27610,0,0,0,463,450,462,0
27622,0,0,0,461,450,462,0
27633,0,0,0,461,451,462,0
27645,0,0,0,462,454,462,0
27657,0,1,0,463,456,462,0
27669,0,2,0,461,458,462,0
27680,0,4,0,462,460,462,0
27692,0,5,0,463,462,462,0
27704,0,7,0,464,465,462,0
27715,0,7,0,465,465,462,0
27727,0,8,0,466,467,462,0
27739,0,8,0,466,468,462,0
27750,0,10,0,466,470,462,0
27762,0,11,0,467,472,462,0
27774,0,10,0,466,471,462,0
27786,0,13,0,468,476,462,0
27797,0,14,0,469,477,462,0
27809,0,13,0,470,476,462,0
27821,1,16,0,472,480,462,0
27832,2,17,0,474,483,462,0
27844,2,18,0,474,484,462,0
27856,3,19,0,477,486,462,0
27868,3,19,0,477,485,462,0
27879,4,20,0,481,488,461,0
27891,5,21,0,484,489,462,0
27903,6,21,0,486,489,462,0
27914,7,22,0,491,491,462,0
27926,8,21,0,494,489,462,0
27938,10,21,0,498,489,462,0
27949,11,22,0,502,491,462,0
27961,13,23,0,507,493,462,0
27973,15,23,0,514,493,462,0
27985,18,22,0,521,491,462,0
27996,20,25,0,527,496,462,0
28008,22,29,0,534,502,462,0
28020,23,30,0,537,504,462,0
28031,25,32,0,544,508,462,0
28043,27,33,0,549,509,462,0
28055,29,35,0,555,513,462,0
28068,31,38,0,560,517,462,0
28080,30,42,0,557,524,462,0
28092,32,42,0,564,524,462,0
28103,36,45,0,576,529,462,0
28115,37,44,0,578,528,462,0
28127,39,47,0,585,533,462,0
28138,38,48,0,580,534,462,0
28150,45,51,0,603,540,462,0
28162,46,51,0,604,539,462,0
28173,52,55,0,624,546,462,0
28185,53,59,0,627,552,462,0
28197,60,59,0,647,552,462,0
28209,60,60,0,647,554,462,0
28220,64,60,0,658,555,462,0
28232,66,62,0,663,558,462,0
28244,72,63,0,682,560,462,0
28255,78,65,0,700,563,462,0
28267,73,61,0,685,556,462,0
28279,76,63,0,694,560,462,0
28291,80,65,0,705,563,462,0
28302,78,65,0,700,563,462,0
28314,82,63,0,711,559,462,0
28326,84,58,0,718,551,462,0
28337,80,60,0,705,554,462,0
28349,90,59,0,736,553,462,0
28361,90,51,0,735,540,462,0
28372,95,51,0,750,539,462,0
28384,91,53,0,739,542,462,0
28396,93,49,0,744,535,462,0
28408,91,47,0,739,533,462,0
28419,94,43,0,748,526,461,0
28431,92,40,0,742,520,462,0
28443,92,40,0,741,521,462,0
28454,83,32,0,715,507,462,0
28466,87,33,0,726,509,462,0
28478,81,31,0,708,505,462,0
28490,78,28,0,701,500,462,0
28501,81,27,0,708,499,462,0
28513,73,23,0,684,492,462,0
28525,66,23,0,664,492,462,0
28536,64,19,0,657,486,462,0
28548,64,19,0,659,486,462,0
28560,58,13,0,640,476,462,0
28571,51,11,0,619,472,462,0
28583,44,4,0,599,460,462,0
28595,39,4,0,584,460,462,0
28607,20,0,0,528,450,462,0
28618,23,0,0,538,438,462,0
28630,19,0,0,524,426,462,0
28642,20,0,0,528,415,462,0
28653,13,0,0,506,397,462,0
28665,5,0,0,484,392,462,0
28677,6,0,0,488,380,462,0
28689,3,0,0,477,368,462,0
28700,1,0,0,472,358,462,0
28712,0,0,0,451,349,461,0
28724,0,0,0,443,345,461,0
28735,0,0,0,423,340,462,0
28747,0,0,0,405,339,462,0
28759,0,0,0,384,341,462,0
28770,0,0,0,360,345,462,0
28782,0,0,0,337,351,462,0
28794,0,0,0,311,352,462,0
28806,0,0,0,292,357,462,0
28817,0,0,0,276,369,462,0
28829,0,0,0,255,377,462,0
28841,0,0,0,247,378,462,0
28852,0,0,0,249,396,462,0
28864,0,0,0,237,402,462,0
28876,0,0,0,239,411,462,0
28887,0,0,0,235,419,462,0
28899,0,0,0,229,426,462,0
28911,0,0,0,241,441,462,0
28923,0,0,0,237,446,462,0
28934,0,0,0,248,449,462,0
28946,0,0,0,267,453,462,0
28958,0,0,0,275,452,462,0
28969,0,7,0,289,465,462,0
28981,0,8,0,299,467,462,0
28993,0,6,0,290,464,462,0
29005,0,10,0,314,470,462,0
29016,0,10,0,305,470,462,0
29028,0,8,0,316,468,462,0
29040,0,6,0,363,464,462,0
29051,0,13,0,370,475,462,0
29063,0,11,0,395,472,462,0
29075,0,11,0,386,472,462,0
29086,0,3,0,411,459,462,0
29098,0,5,0,466,463,462,0
29110,0,4,0,441,461,462,0
29122,2,6,0,476,464,462,0
29133,21,5,0,532,463,462,0
29145,28,2,0,552,457,462,0
29157,29,8,0,556,467,462,0
29168,38,10,0,582,470,462,0
29180,50,17,0,616,482,462,0
29192,39,15,0,584,479,462,0
29204,72,18,0,681,484,462,0
29215,66,25,0,664,495,462,0
29227,76,34,0,695,511,462,0
29239,70,35,0,677,513,462,0
29250,77,41,0,696,522,462,0
29262,71,38,0,678,517,462,0
29274,68,43,0,670,526,462,0
29285,63,45,0,654,529,462,0
29297,67,49,0,668,535,462,0
29309,53,53,0,625,543,462,0
29321,54,56,0,630,548,462,0
29332,43,60,0,595,555,462,0
29344,32,59,0,565,552,462,0
29356,43,57,0,597,550,462,0
29367,19,59,0,524,552,462,0
29379,18,60,0,523,554,462,0
29391,25,61,0,544,556,462,0
29403,15,64,0,512,561,462,0
29414,10,65,0,500,563,462,0
29426,1,68,0,473,568,462,0
29438,0,68,0,456,567,462,0
29449,1,71,0,471,572,462,0
29461,0,71,0,424,573,462,0
29473,0,71,0,434,572,462,0
29484,0,69,0,391,570,462,0
29496,0,63,0,367,560,462,0
29508,0,62,0,375,557,462,0
29520,0,57,0,352,549,462,0
29531,0,54,0,352,544,462,0
29543,0,50,0,324,537,462,0
29555,0,44,0,305,527,462,0
29566,0,35,0,273,513,462,0
29578,0,28,0,257,501,462,0
29590,0,19,0,220,486,462,0
29601,0,10,0,202,471,462,0
29613,0,1,0,186,456,462,0
29625,0,0,0,161,445,462,0
29637,0,0,0,145,437,462,0
29648,0,0,0,133,428,462,0
29660,0,0,0,125,423,462,0
29672,0,0,0,127,420,462,0
29683,0,0,0,130,416,462,0
29695,0,0,0,132,413,462,0
29707,0,0,0,141,410,462,0
29719,0,0,0,156,408,462,0
29730,0,0,0,163,408,462,0
29742,0,0,0,182,405,462,0
29754,0,0,0,205,408,462,0
29765,0,0,0,229,405,462,0
29777,0,0,0,248,404,462,0
29789,0,0,0,266,402,462,0
29800,0,0,0,284,402,462,0
29812,0,0,0,300,402,462,0
29824,0,0,0,321,402,462,0
29836,0,0,0,339,402,462,0
29847,0,0,0,352,404,462,0
29859,0,0,0,364,407,462,0
29871,0,0,0,379,408,462,0
29882,0,0,0,389,410,462,0
29894,0,0,0,396,413,462,0
29906,0,0,0,404,415,462,0
29918,0,0,0,413,417,462,0
29929,0,0,0,424,418,462,0
29941,0,0,0,432,419,462,0
29953,0,0,0,439,420,462,0
29964,0,0,0,447,420,462,0
29976,0,0,0,454,422,462,0
29988,0,0,0,462,424,462,0
29999,0,0,0,466,425,462,0
30011,0,0,0,470,426,462,0
30023,2,0,0,474,427,462,0
30035,3,0,0,477,429,462,0
30046,4,0,0,481,430,462,0
30058,7,0,0,489,434,462,0
30071,8,0,0,493,435,462,0
30083,9,0,0,496,436,462,0
30095,9,0,0,496,435,462,0
30106,9,0,0,495,435,462,0
30118,9,0,0,495,436,462,0
30130,9,0,0,496,437,462,0
30141,10,0,0,498,439,462,0
30153,10,0,0,498,443,462,0
30165,10,0,0,500,444,462,0
30176,11,0,0,501,446,462,0
30188,11,0,0,501,449,461,0
30200,11,0,0,503,450,461,0
30212,12,0,0,504,452,462,0
30223,11,0,0,503,454,462,0
30235,11,1,0,502,455,462,0
30247,12,2,0,504,457,462,0
30258,12,2,0,505,457,462,0
30270,13,2,0,506,458,462,0
30282,12,2,0,505,458,462,0
30294,11,4,0,503,460,462,0
30305,12,4,0,505,461,462,0
30317,12,4,0,504,461,462,0
30329,12,4,0,504,461,462,0
30340,12,5,0,504,462,462,0
30352,12,4,0,504,461,462,0
30364,11,4,0,502,461,462,0
30375,10,4,0,500,461,462,0
30387,11,4,0,502,460,462,0
30399,12,3,0,504,459,462,0
30411,11,1,0,502,456,462,0
30422,11,1,0,502,455,462,0
30434,11,0,0,503,453,462,0
30446,11,0,0,503,454,462,0
30457,12,0,0,504,453,462,0
30469,11,0,0,503,452,462,0
30481,11,0,0,501,454,462,0
30493,9,0,0,497,453,462,0
30504,10,0,0,499,453,462,0
30516,10,0,0,499,452,462,0
30528,9,0,0,497,451,462,0
30539,8,0,0,494,449,462,0
30551,8,0,0,492,448,462,0
30563,7,0,0,490,447,462,0
30574,7,0,0,489,445,462,0
30586,7,0,0,490,443,462,0
30598,7,0,0,490,440,462,0
30610,7,0,0,489,439,462,0
30621,7,0,0,489,438,462,0
30633,7,0,0,489,436,462,0
30645,7,0,0,489,436,462,0
30656,7,0,0,489,435,462,0
30668,7,0,0,489,435,462,0
30680,7,0,0,489,436,462,0
30691,6,0,0,488,436,462,0
30703,6,0,0,488,438,462,0
30715,6,0,0,488,438,462,0
30727,7,0,0,490,438,462,0
30738,7,0,0,491,441,462,0
30750,9,0,0,495,443,462,0
30762,10,0,0,498,445,462,0
30773,11,0,0,501,448,462,0
30785,12,0,0,504,450,462,0
30797,13,0,0,507,452,462,0
30809,14,0,0,510,453,462,0
30820,15,1,0,514,455,462,0
30832,17,2,0,518,458,462,0
30844,18,3,0,521,459,462,0
30855,19,5,0,524,462,462,0
30867,19,6,0,526,464,462,0
30879,20,7,0,527,466,462,0
30890,20,7,0,528,466,462,0
30902,21,9,0,531,469,462,0
30914,23,11,0,536,472,462,0
30926,22,9,0,533,469,462,0
30937,23,13,0,538,476,462,0
30949,23,10,0,537,471,462,0
30961,26,15,0,545,479,462,0
30972,27,18,0,548,484,462,0
30984,25,18,0,543,484,462,0
30996,29,21,0,554,489,462,0
31008,30,19,0,557,485,462,0
31019,34,20,0,569,488,462,0
31031,39,23,0,584,493,462,0
31043,39,23,0,583,493,462,0
31054,41,23,0,589,492,462,0
31066,40,28,0,586,500,462,0
31078,43,29,0,595,503,462,0
31089,43,29,0,596,502,462,0
31101,41,28,0,589,501,462,0
31113,45,28,0,603,500,462,0
31125,51,32,0,620,508,462,0
31136,61,37,0,649,516,462,0
31148,63,38,0,654,517,462,0
31160,58,35,0,641,513,462,0
31171,58,35,0,640,513,462,0
31183,65,32,0,661,508,462,0
31195,63,29,0,654,502,462,0
31207,56,23,0,635,492,462,0
31218,71,23,0,679,493,462,0
31230,75,22,0,690,491,462,0
31242,70,19,0,676,486,462,0
31253,76,18,0,695,484,462,0
31265,74,14,0,687,478,462,0
31277,78,13,0,701,476,462,0
31288,72,8,0,681,467,462,0
31300,63,4,0,656,460,462,0
31312,70,5,0,676,462,462,0
31324,70,0,0,676,454,462,0
31335,68,0,0,669,453,462,0
31347,70,1,0,675,456,462,0
31359,73,1,0,685,456,462,0
31370,64,0,0,659,454,462,0
31382,61,0,0,651,452,462,0
31394,52,0,0,623,451,462,0
31405,42,0,0,594,441,462,0
31417,38,0,0,581,442,462,0
31429,25,0,0,544,435,462,0
31441,16,0,0,515,430,462,0
31452,6,0,0,488,421,462,0
31464,0,0,0,468,414,462,0
31476,0,0,0,440,403,462,0
31487,0,0,0,412,397,462,0
31499,0,0,0,380,387,462,0
31511,0,0,0,352,378,462,0
31523,0,0,0,329,367,462,0
31534,0,0,0,304,349,462,0
31546,0,0,0,305,340,462,0
31558,0,0,0,296,326,462,0
31569,0,0,0,281,313,462,0
31581,0,0,0,287,305,462,0
31593,0,0,0,277,298,462,0
31604,0,0,0,270,294,462,0
31616,0,0,0,268,296,462,0
31628,0,0,0,269,299,462,0
31640,0,0,0,265,302,462,0
31651,0,0,0,261,309,462,0
31663,0,0,0,256,317,462,0
31675,0,0,0,247,323,462,0
31686,0,0,0,242,336,462,0
31698,0,0,0,237,346,462,0
31710,0,0,0,237,357,462,0
31722,0,0,0,234,366,462,0
31733,0,0,0,238,376,462,0
31745,0,0,0,238,389,462,0
31757,0,0,0,234,401,462,0
31768,0,0,0,247,411,462,0
31780,0,0,0,251,418,462,0
31792,0,0,0,259,426,462,0
31803,0,0,0,265,438,462,0
31815,0,0,0,272,445,462,0
31827,0,0,0,283,450,462,0
31839,0,0,0,290,454,462,0
31850,0,1,0,293,455,462,0
31862,0,6,0,327,464,462,0
31874,0,10,0,338,471,462,0
31885,0,10,0,334,471,462,0
31897,0,14,0,363,477,462,0
31909,0,10,0,365,471,462,0
31920,0,12,0,386,474,462,0
31932,0,14,0,389,477,462,0
31944,0,13,0,401,475,462,0
31956,0,12,0,414,474,462,0
31967,0,14,0,418,478,462,0
31979,0,10,0,434,470,462,0
31991,0,8,0,438,467,462,0
32002,0,5,0,447,463,462,0
32014,0,5,0,444,463,462,0
32026,0,3,0,468,459,462,0
32038,0,3,0,459,459,462,0
32049,2,4,0,474,461,462,0
32061,0,0,0,456,451,462,0
32074,1,0,0,472,439,462,0
32086,11,0,0,502,449,462,0
32098,5,0,0,485,451,462,0
32109,11,0,0,502,451,462,0
32121,0,0,0,464,445,462,0
32133,22,0,0,535,454,462,0
32145,14,7,0,511,466,462,0
32156,10,8,0,498,467,462,0
32168,28,11,0,551,473,462,0
32180,30,12,0,559,474,462,0
32191,45,22,0,601,490,462,0
32203,38,31,0,581,506,462,0
32215,45,34,0,602,511,462,0
32226,51,38,0,621,517,462,0
32238,54,44,0,629,527,462,0
32250,48,50,0,612,538,462,0
32262,48,53,0,611,542,462,0
32273,59,57,0,645,549,462,0
32285,39,61,0,583,556,462,0
32297,51,65,0,621,563,462,0
32308,53,66,0,626,565,462,0
32320,40,64,0,588,561,462,0
32332,48,65,0,611,562,462,0
32344,35,67,0,573,566,462,0
32355,19,68,0,524,568,462,0
32367,25,68,0,542,568,462,0
32379,15,69,0,514,570,462,0
32390,19,70,0,524,571,462,0
32402,11,69,0,501,569,462,0
32414,10,69,0,499,569,462,0
32425,0,71,0,454,572,462,0
32437,0,66,0,446,564,462,0
32449,0,70,0,452,571,462,0
32461,0,67,0,418,566,462,0
32472,0,68,0,418,568,462,0
32484,0,65,0,417,563,462,0
32496,0,62,0,376,558,462,0
32507,0,60,0,393,555,462,0
32519,0,52,0,330,541,462,0
32531,0,51,0,347,539,462,0
32542,0,46,0,318,531,462,0
32554,0,40,0,309,521,462,0
32566,0,34,0,281,510,462,0
32578,0,28,0,285,501,462,0
32589,0,22,0,267,490,462,0
32601,0,16,0,247,480,462,0
32613,0,7,0,233,466,462,0
32624,0,4,0,224,460,462,0
32636,0,0,0,220,453,462,0
32648,0,0,0,198,446,462,0
32660,0,0,0,189,440,462,0
32671,0,0,0,177,436,462,0
32683,0,0,0,186,432,462,0
32695,0,0,0,183,429,462,0
32706,0,0,0,180,425,462,0
32718,0,0,0,180,420,462,0
32730,0,0,0,186,417,462,0
32741,0,0,0,194,412,462,0
32753,0,0,0,206,409,462,0
32765,0,0,0,220,405,461,0
32777,0,0,0,236,403,462,0
32788,0,0,0,250,401,462,0
32800,0,0,0,266,399,462,0
32812,0,0,0,283,398,462,0
32823,0,0,0,298,399,462,0
32835,0,0,0,311,401,462,0
32847,0,0,0,326,403,462,0
32859,0,0,0,339,407,462,0
32870,0,0,0,353,409,462,0
32882,0,0,0,363,412,462,0
32894,0,0,0,372,414,462,0
32905,0,0,0,380,417,462,0
32917,0,0,0,388,417,462,0
32929,0,0,0,397,418,462,0
32940,0,0,0,405,419,462,0
32952,0,0,0,413,422,462,0
32964,0,0,0,422,425,462,0
32976,0,0,0,430,430,462,0
32987,0,0,0,436,436,462,0
32999,0,0,0,443,439,462,0
33011,0,0,0,448,441,462,0
33022,0,0,0,455,444,462,0
33034,0,0,0,462,449,462,0
33046,0,0,0,469,453,462,0
33057,2,2,0,474,457,462,0
33069,3,2,0,479,458,462,0
33081,5,3,0,483,459,462,0
33093,6,3,0,486,459,462,0
33104,7,2,0,489,457,462,0
33116,7,1,0,491,456,462,0
33128,8,0,0,492,453,462,0
33139,8,0,0,493,451,462,0
33151,9,0,0,495,450,462,0
33163,10,0,0,498,447,462,0
33175,10,0,0,499,444,462,0
33186,11,0,0,501,441,462,0
33198,11,0,0,503,440,462,0
33210,12,0,0,505,440,462,0
33221,12,0,0,505,440,462,0
33233,12,0,0,505,441,462,0
33245,13,0,0,506,443,462,0
33256,13,0,0,507,445,462,0
33268,13,0,0,508,447,462,0
33280,14,0,0,509,449,462,0
33292,14,0,0,509,450,462,0
33303,14,0,0,510,450,462,0
33315,15,0,0,512,452,462,0
33327,15,0,0,512,453,462,0
33338,15,1,0,513,456,462,0
33350,15,2,0,513,458,461,0
33362,15,4,0,513,460,461,0
33374,15,4,0,514,460,462,0
33385,16,3,0,515,459,462,0
33397,16,4,0,515,460,462,0
33409,16,4,0,516,460,462,0
33420,16,4,0,516,460,462,0
33432,16,4,0,515,460,462,0
33444,15,4,0,513,461,462,0
33455,14,5,0,510,463,462,0
33467,13,7,0,508,465,462,0
33479,13,8,0,507,467,462,0
